1042.452273	691.7999878
1043.018714	693.0
1043.585098	695.2000122
1044.151424	695.5999756
1044.717692	688.7999878
1045.283903	691.4000244
1045.850056	690.7999878
1046.416151	688.0
1046.982188	693.7999878
1047.548167	686.5999756
1048.114089	689.0
1048.679953	685.2000122
1049.24576	690.0
1049.811509	682.5999756
1050.3772	685.0
1050.942833	686.5999756
1051.508408	685.7999878
1052.073926	682.5999756
1052.639387	685.2000122
1053.204789	686.2000122
1053.770134	684.0
1054.335421	689.7999878
1054.900651	685.5999756
1055.465823	686.4000244
1056.030937	682.7999878
1056.595993	681.0
1057.160992	685.2000122
1057.725934	687.4000244
1058.290817	684.7999878
1058.855643	678.4000244
1059.420411	684.0
1059.985122	684.5999756
1060.549775	682.0
1061.114371	681.5999756
1061.678908	683.4000244
1062.243389	685.5999756
1062.807811	678.7999878
1063.372176	683.7999878
1063.936483	684.7999878
1064.500733	680.0
1065.064925	682.7999878
1065.62906	681.5999756
1066.193137	683.5999756
1066.757156	680.4000244
1067.321118	682.2000122
1067.885022	682.7999878
1068.448869	679.4000244
1069.012658	686.7999878
1069.57639	685.7999878
1070.140063	687.4000244
1070.70368	682.2000122
1071.267239	684.7999878
1071.83074	682.5999756
1072.394184	683.2000122
1072.95757	678.7999878
1073.520899	678.7999878
1074.08417	684.2000122
1074.647383	681.5999756
1075.21054	678.2000122
1075.773638	679.2000122
1076.336679	679.2000122
1076.899663	679.7999878
1077.462589	682.5999756
1078.025457	683.0
1078.588268	681.7999878
1079.151022	679.4000244
1079.713718	682.4000244
1080.276356	678.7999878
1080.838937	681.7999878
1081.401461	680.5999756
1081.963927	684.2000122
1082.526336	681.7999878
1083.088687	682.7999878
1083.650981	680.2000122
1084.213217	681.4000244
1084.775396	680.0
1085.337517	679.5999756
1085.899581	679.7999878
1086.461587	677.4000244
1087.023536	681.0
1087.585428	679.7999878
1088.147262	681.0
1088.709039	682.5999756
1089.270758	683.4000244
1089.83242	676.7999878
1090.394024	680.7999878
1090.955571	681.4000244
1091.517061	677.4000244
1092.078493	681.0
1092.639868	679.4000244
1093.201185	678.7999878
1093.762445	682.2000122
1094.323648	678.2000122
1094.884793	680.4000244
1095.445881	683.2000122
1096.006911	683.0
1096.567884	678.2000122
1097.1288	687.4000244
1097.689659	679.5999756
1098.25046	678.2000122
1098.811203	683.5999756
1099.37189	680.7999878
1099.932518	679.5999756
1100.49309	677.5999756
1101.053604	680.4000244
1101.614061	678.4000244
1102.174461	682.5999756
1102.734803	681.2000122
1103.295088	677.7999878
1103.855316	678.2000122
1104.415486	679.7999878
1104.975599	679.4000244
1105.535655	679.5999756
1106.095653	680.2000122
1106.655594	682.2000122
1107.215478	678.0
1107.775305	682.5999756
1108.335074	679.2000122
1108.894786	679.7999878
1109.45444	682.4000244
1110.014038	681.0
1110.573578	681.2000122
1111.133061	681.7999878
1111.692486	683.4000244
1112.251854	680.7999878
1112.811165	678.5999756
1113.370419	683.5999756
1113.929616	679.5999756
1114.488755	677.5999756
1115.047837	679.0
1115.606862	679.2000122
1116.16583	681.2000122
1116.72474	680.2000122
1117.283593	679.7999878
1117.842389	679.5999756
1118.401128	680.5999756
1118.959809	682.0
1119.518433	679.4000244
1120.077	680.2000122
1120.63551	677.4000244
1121.193963	679.2000122
1121.752358	679.5999756
1122.310697	679.4000244
1122.868978	681.4000244
1123.427202	681.4000244
1123.985368	680.5999756
1124.543478	682.2000122
1125.10153	679.0
1125.659526	683.2000122
1126.217464	684.2000122
1126.775345	683.2000122
1127.333168	682.2000122
1127.890935	682.7999878
1128.448644	683.4000244
1129.006297	682.2000122
1129.563892	681.0
1130.12143	678.5999756
1130.678911	681.7999878
1131.236335	681.2000122
1131.793701	682.5999756
1132.351011	681.0
1132.908263	678.2000122
1133.465458	679.5999756
1134.022597	678.7999878
1134.579678	681.5999756
1135.136702	680.5999756
1135.693669	679.4000244
1136.250578	680.7999878
1136.807431	681.5999756
1137.364227	677.4000244
1137.920965	680.2000122
1138.477647	679.2000122
1139.034271	681.2000122
1139.590839	678.5999756
1140.147349	681.5999756
1140.703802	677.7999878
1141.260198	679.5999756
1141.816537	677.0
1142.37282	679.7999878
1142.929045	683.0
1143.485213	682.2000122
1144.041323	682.2000122
1144.597377	681.4000244
1145.153374	680.7999878
1145.709314	680.0
1146.265197	677.4000244
1146.821023	680.2000122
1147.376792	678.2000122
1147.932503	679.2000122
1148.488158	679.4000244
1149.043756	678.5999756
1149.599297	679.4000244
1150.154781	678.5999756
1150.710207	676.0
1151.265577	683.5999756
1151.82089	681.7999878
1152.376146	678.4000244
1152.931345	678.4000244
1153.486487	681.2000122
1154.041572	679.4000244
1154.5966	678.2000122
1155.151571	679.0
1155.706485	680.0
1156.261342	680.4000244
1156.816142	680.7999878
1157.370885	679.5999756
1157.925572	680.7999878
1158.480201	683.7999878
1159.034774	682.4000244
1159.589289	680.2000122
1160.143748	682.0
1160.698149	681.7999878
1161.252494	679.2000122
1161.806782	681.4000244
1162.361013	681.2000122
1162.915187	680.5999756
1163.469304	677.0
1164.023364	680.7999878
1164.577368	677.2000122
1165.131314	678.7999878
1165.685204	679.5999756
1166.239036	679.2000122
1166.792812	680.5999756
1167.346531	679.7999878
1167.900193	679.2000122
1168.453798	681.5999756
1169.007347	680.2000122
1169.560838	680.7999878
1170.114273	682.0
1170.66765	678.0
1171.220971	682.5999756
1171.774235	677.7999878
1172.327443	680.0
1172.880593	678.5999756
1173.433687	678.0
1173.986723	678.2000122
1174.539703	678.5999756
1175.092626	679.7999878
1175.645493	675.7999878
1176.198302	678.4000244
1176.751055	680.0
1177.303751	678.4000244
1177.85639	676.5999756
1178.408972	676.5999756
1178.961498	679.4000244
1179.513966	678.5999756
1180.066378	679.7999878
1180.618733	680.0
1181.171032	677.4000244
1181.723273	680.0
1182.275458	680.0
1182.827586	680.4000244
1183.379657	680.0
1183.931672	677.7999878
1184.48363	678.7999878
1185.035531	680.7999878
1185.587375	679.0
1186.139162	676.7999878
1186.690893	676.0
1187.242567	678.0
1187.794184	675.5999756
1188.345745	677.0
1188.897249	676.4000244
1189.448696	676.5999756
1190.000086	680.0
1190.55142	680.0
1191.102697	682.0
1191.653918	678.0
1192.205081	678.0
1192.756188	678.7999878
1193.858232	676.0
1194.409169	675.5999756
1194.960049	680.0
1195.510872	681.4000244
1196.061639	677.5999756
1196.612349	678.7999878
1197.163003	678.0
1197.713599	678.2000122
1198.264139	677.4000244
1198.814623	675.0
1199.36505	680.4000244
1199.91542	677.7999878
1200.465734	677.4000244
1201.01599	679.4000244
1201.566191	679.7999878
1202.116334	679.4000244
1202.666421	679.7999878
1203.216452	677.4000244
1203.766425	681.0
1204.316343	675.5999756
1204.866203	680.4000244
1205.416007	678.0
1205.965754	678.5999756
1206.515445	674.7999878
1207.065079	677.5999756
1207.614657	677.5999756
1208.164177	681.2000122
1208.713642	677.5999756
1209.26305	680.5999756
1209.812401	679.5999756
1210.361695	678.2000122
1210.910933	681.7999878
1211.460115	678.5999756
1212.00924	679.0
1212.558308	679.7999878
1213.10732	679.0
1213.656275	676.2000122
1214.205174	678.2000122
1214.754016	675.4000244
1215.302801	679.4000244
1215.85153	678.0
1216.400203	682.4000244
1216.948819	680.4000244
1217.497378	679.2000122
1218.045881	678.7999878
1218.594327	681.4000244
1219.142717	680.7999878
1219.691051	677.5999756
1220.239327	680.0
1220.787548	676.7999878
1221.335712	676.4000244
1221.883819	678.2000122
1222.43187	675.7999878
1222.979864	676.4000244
1223.527802	679.0
1224.075683	678.0
1224.623508	679.4000244
1225.171277	677.5999756
1225.718989	679.0
1226.266644	681.0
1226.814243	677.7999878
1227.361786	680.2000122
1227.909272	680.4000244
1228.456702	676.7999878
1229.004075	680.5999756
1229.551392	678.2000122
1230.098652	680.0
1230.645856	681.5999756
1231.193003	678.5999756
1231.740094	677.0
1232.287129	677.7999878
1232.834107	682.0
1233.381029	678.7999878
1233.927894	678.5999756
1234.474703	682.0
1235.021455	682.4000244
1235.568151	678.4000244
1236.114791	679.2000122
1236.661374	680.2000122
1237.207901	677.4000244
1237.754372	681.7999878
1238.300786	675.2000122
1238.847144	679.0
1239.393445	677.2000122
1239.93969	680.5999756
1240.485879	680.5999756
1241.032011	682.7999878
1241.578087	680.4000244
1242.124106	679.2000122
1242.67007	678.5999756
1243.215976	681.7999878
1243.761827	684.0
1244.307621	678.4000244
1244.853359	679.0
1245.39904	680.5999756
1245.944665	683.0
1246.490234	678.5999756
1247.035746	678.5999756
1247.581203	681.0
1248.126602	681.0
1248.671946	680.7999878
1249.217233	679.4000244
1249.762464	682.4000244
1250.307638	677.0
1250.852757	680.5999756
1251.397819	679.4000244
1251.942824	680.0
1252.487774	681.5999756
1253.032667	678.5999756
1253.577503	679.2000122
1254.122284	680.7999878
1254.667008	677.2000122
1255.211676	678.7999878
1255.756288	675.7999878
1256.300843	680.0
1256.845342	681.4000244
1257.389785	680.0
1257.934172	680.5999756
1258.478502	679.7999878
1259.022776	676.0
1259.566994	683.5999756
1260.111156	692.5999756
1260.655261	680.4000244
1261.199311	680.4000244
1261.743304	681.2000122
1262.28724	676.0
1262.831121	684.0
1263.374945	682.0
1263.918713	684.7999878
1264.462425	690.4000244
1265.006081	709.5999756
1265.54968	735.4000244
1266.093223	709.2000122
1266.636711	690.7999878
1267.180141	682.7999878
1267.723516	681.7999878
1268.266835	680.5999756
1268.810097	680.5999756
1269.353303	680.0
1269.896453	681.0
1270.439547	675.4000244
1270.982584	679.4000244
1271.525566	680.7999878
1272.068491	677.7999878
1272.61136	682.0
1273.154173	678.7999878
1273.69693	677.0
1274.239631	677.5999756
1274.782275	679.4000244
1275.324864	683.0
1275.867396	677.7999878
1276.409872	681.2000122
1276.952292	681.0
1277.494656	676.2000122
1278.036964	678.5999756
1278.579215	681.7999878
1279.121411	677.4000244
1279.66355	679.5999756
1280.205634	680.2000122
1280.747661	681.2000122
1281.289632	681.4000244
1281.831547	683.7999878
1282.373406	684.5999756
1282.915209	686.4000244
1283.456955	690.7999878
1283.998646	703.7999878
1284.540281	722.4000244
1285.081859	848.0
1285.623381	1280.599976
1286.164848	1186.800049
1286.706258	794.7999878
1287.247612	713.5999756
1287.788911	693.7999878
1288.330153	690.7999878
1288.871339	684.0
1289.412469	684.4000244
1289.953543	681.0
1290.494561	680.5999756
1291.035523	680.7999878
1291.576428	679.4000244
1292.117278	679.5999756
1292.658072	678.0
1293.19881	681.4000244
1293.739492	677.7999878
1294.280118	676.0
1294.820687	679.2000122
1295.361201	678.4000244
1295.901659	680.2000122
1296.442061	679.4000244
1296.982406	678.0
1297.522696	680.0
1298.06293	679.7999878
1298.603108	679.5999756
1299.143229	672.7999878
1299.683295	677.7999878
1300.223305	677.2000122
1300.763259	677.7999878
1301.303157	677.5999756
1301.842999	679.5999756
1302.382785	676.7999878
1302.922515	677.2000122
1303.462189	676.4000244
1304.001807	678.5999756
1304.541369	680.4000244
1305.080875	678.5999756
1305.620326	677.0
1306.15972	677.5999756
1306.699058	677.0
1307.238341	680.4000244
1307.777567	680.0
1308.316738	679.2000122
1308.855853	678.0
1309.394912	679.7999878
1309.933915	676.0
1310.472862	678.5999756
1311.011753	678.5999756
1311.550588	677.2000122
1312.089367	678.7999878
1312.62809	675.4000244
1313.166758	678.5999756
1313.70537	676.2000122
1314.243925	677.2000122
1314.782425	676.5999756
1315.320869	678.2000122
1315.859257	680.2000122
1316.397589	675.2000122
1316.935866	676.7999878
1317.474086	677.2000122
1318.012251	678.7999878
1318.55036	681.4000244
1319.088413	678.0
1319.62641	681.4000244
1320.164351	680.5999756
1320.702236	676.7999878
1321.240066	680.5999756
1321.777839	676.2000122
1322.315557	676.0
1322.853219	680.0
1323.390826	676.5999756
1323.928376	681.0
1324.465871	678.0
1325.003309	676.0
1325.540692	678.4000244
1326.07802	678.0
1326.615291	678.4000244
1327.152506	682.7999878
1327.689666	677.7999878
1328.22677	677.7999878
1328.763818	679.4000244
1329.300811	676.0
1329.837747	678.7999878
1330.374628	679.5999756
1330.911453	679.5999756
1331.448222	678.2000122
1331.984936	678.2000122
1332.521594	678.4000244
1333.058196	676.0
1333.594742	677.7999878
1334.131232	677.5999756
1334.667667	675.7999878
1335.204046	679.0
1335.740369	678.4000244
1336.276637	679.7999878
1336.812848	680.2000122
1337.349004	680.2000122
1337.885105	679.4000244
1338.421149	679.5999756
1338.957138	680.7999878
1339.493071	678.7999878
1340.028949	680.0
1340.56477	678.5999756
1341.100536	677.7999878
1341.636246	676.0
1342.171901	680.2000122
1342.7075	677.4000244
1343.243043	678.0
1343.77853	673.7999878
1344.313962	678.5999756
1344.849338	679.7999878
1345.384659	676.4000244
1345.919923	679.0
1346.455133	678.2000122
1346.990286	679.4000244
1347.525384	679.0
1348.060426	677.0
1348.595412	676.4000244
1349.130343	674.4000244
1349.665218	678.5999756
1350.200037	677.2000122
1350.734801	680.5999756
1351.269509	677.7999878
1351.804162	678.0
1352.338758	677.0
1352.8733	677.7999878
1353.407785	678.7999878
1353.942215	679.7999878
1354.476589	681.2000122
1355.010908	679.5999756
1355.545171	675.0
1356.079379	677.5999756
1356.61353	680.0
1357.147627	679.0
1357.681667	679.5999756
1358.215652	677.7999878
1358.749582	677.7999878
1359.283456	680.5999756
1359.817274	679.2000122
1360.351037	679.4000244
1360.884744	678.5999756
1361.418395	676.4000244
1361.951991	678.5999756
1362.485531	681.0
1363.019016	678.4000244
1363.552445	677.2000122
1364.085819	678.7999878
1364.619137	676.2000122
1365.1524	678.7999878
1365.685607	679.2000122
1366.218758	680.0
1366.751854	680.7999878
1367.284894	678.7999878
1367.817879	677.2000122
1368.350808	680.4000244
1368.883682	679.2000122
1369.4165	677.2000122
1369.949263	682.0
1370.48197	691.0
1371.014622	690.2000122
1371.547218	678.5999756
1372.079758	680.7999878
1372.612244	679.2000122
1373.144673	677.4000244
1373.677047	680.0
1374.209366	678.2000122
1374.741629	680.5999756
1375.273836	680.7999878
1375.805989	678.0
1376.338085	678.2000122
1376.870126	679.7999878
1377.402112	677.4000244
1377.934042	682.4000244
1378.465917	678.5999756
1378.997736	682.5999756
1379.5295	676.2000122
1380.061208	677.5999756
1380.592861	678.0
1381.124459	678.2000122
1381.656	679.5999756
1382.187487	677.4000244
1382.718918	681.7999878
1383.250294	678.2000122
1383.781614	682.4000244
1384.312879	684.4000244
1384.844088	687.5999756
1385.375242	681.5999756
1385.90634	687.2000122
1386.437383	695.2000122
1386.968371	697.0
1387.499303	712.7999878
1388.03018	773.2000122
1388.561001	1253.400024
1389.091767	1844.800049
1389.622478	1012.599976
1390.153133	740.0
1390.683733	703.5999756
1391.214277	687.7999878
1391.744766	687.2000122
1392.2752	684.5999756
1392.805578	680.5999756
1393.335901	679.2000122
1393.866168	685.4000244
1394.396381	680.4000244
1394.926537	678.0
1395.456639	681.5999756
1395.986685	679.5999756
1396.516675	677.5999756
1397.046611	678.2000122
1397.576491	678.5999756
1398.106315	679.0
1398.636084	681.2000122
1399.165798	678.4000244
1399.695457	678.4000244
1400.22506	676.4000244
1400.754608	677.7999878
1401.284101	678.2000122
1401.813538	680.2000122
1402.34292	678.2000122
1402.872247	678.2000122
1403.401518	679.2000122
1403.930734	678.7999878
1404.459895	678.0
1404.989	681.7999878
1405.51805	681.4000244
1406.047045	677.2000122
1406.575984	678.5999756
1407.104869	678.2000122
1407.633697	683.5999756
1408.162471	682.0
1408.691189	682.5999756
1409.219852	694.2000122
1409.74846	724.0
1410.277013	776.7999878
1410.80551	735.7999878
1411.333952	695.4000244
1411.862339	683.7999878
1412.39067	683.2000122
1412.918946	678.0
1413.447167	679.2000122
1413.975333	679.0
1414.503444	677.0
1415.031499	677.0
1415.559499	689.5999756
1416.087444	676.7999878
1416.615333	677.5999756
1417.143167	677.4000244
1417.670947	679.0
1418.19867	677.2000122
1418.726339	679.4000244
1419.253952	676.2000122
1419.781511	680.7999878
1420.309014	678.5999756
1420.836461	674.5999756
1421.363854	678.0
1421.891191	678.7999878
1422.418474	675.7999878
1422.945701	679.7999878
1423.472872	677.5999756
1423.999989	677.5999756
1424.52705	679.5999756
1425.054057	678.5999756
1425.581008	679.5999756
1426.107904	683.0
1426.634745	681.0
1427.16153	677.7999878
1427.688261	674.4000244
1428.214936	678.4000244
1428.741556	674.7999878
1429.268121	677.5999756
1429.794631	680.0
1430.321085	678.4000244
1430.847485	677.2000122
1431.373829	676.7999878
1431.900118	674.5999756
1432.426353	675.0
1432.952532	676.4000244
1433.478655	674.2000122
1434.004724	680.0
1434.530738	678.5999756
1435.056696	676.4000244
1435.5826	674.5999756
1436.108448	676.7999878
1436.634241	676.2000122
1437.159979	676.0
1437.685662	679.7999878
1438.21129	676.5999756
1438.736863	675.5999756
1439.262381	678.0
1439.787843	676.7999878
1440.313251	675.0
1440.838603	676.4000244
1441.3639	677.4000244
1441.889143	675.0
1442.41433	676.5999756
1442.939462	676.0
1443.464539	674.7999878
1443.989561	677.2000122
1444.514528	675.5999756
1445.03944	677.2000122
1445.564297	674.2000122
1446.089099	675.7999878
1446.613846	676.2000122
1447.138537	675.2000122
1447.663174	676.2000122
1448.187756	677.4000244
1448.712282	675.2000122
1449.236754	676.4000244
1449.761171	676.7999878
1450.285532	673.4000244
1450.809839	675.5999756
1451.33409	678.0
1451.858287	676.5999756
1452.382428	676.2000122
1452.906515	677.2000122
1453.430546	676.2000122
1453.954523	676.7999878
1454.478444	676.5999756
1455.002311	677.4000244
1455.526123	677.0
1456.049879	675.5999756
1456.573581	674.2000122
1457.097227	672.5999756
1457.620819	675.5999756
1458.144356	677.0
1458.667837	676.0
1459.191264	677.4000244
1459.714636	675.2000122
1460.237952	676.4000244
1460.761214	675.5999756
1461.284421	675.4000244
1461.807573	674.5999756
1462.33067	674.0
1462.853712	678.0
1463.376699	676.7999878
1463.899632	673.2000122
1464.422509	678.2000122
1464.945331	675.5999756
1465.468099	676.0
1465.990811	676.5999756
1466.513469	675.7999878
1467.036071	675.7999878
1467.558619	677.5999756
1468.081112	672.4000244
1468.60355	675.0
1469.125933	676.7999878
1469.648261	678.0
1470.170534	676.5999756
1470.692752	674.7999878
1471.214916	673.2000122
1471.737024	676.2000122
1472.259078	677.5999756
1472.781077	674.4000244
1473.303021	674.2000122
1473.82491	675.4000244
1474.346744	676.2000122
1474.868523	676.2000122
1475.390248	677.5999756
1475.911917	676.2000122
1476.433532	676.0
1476.955092	674.5999756
1477.476597	674.0
1477.998047	675.5999756
1478.519442	676.5999756
1479.040783	676.0
1479.562068	674.7999878
1480.083299	672.2000122
1480.604475	675.4000244
1481.125596	675.2000122
1481.646663	675.4000244
1482.167674	675.5999756
1482.688631	676.4000244
1483.209533	675.0
1483.73038	677.5999756
1484.251172	676.0
1484.771909	675.2000122
1485.292592	673.5999756
1485.81322	678.0
1486.333793	673.7999878
1486.854311	676.5999756
1487.374775	674.4000244
1487.895183	675.0
1488.415537	673.5999756
1488.935836	675.7999878
1489.456081	675.0
1489.97627	676.0
1490.496405	676.0
1491.016485	676.7999878
1491.536511	674.7999878
1492.056481	678.7999878
1492.576397	676.5999756
1493.096258	676.0
1493.616064	675.5999756
1494.135816	672.7999878
1494.655513	674.4000244
1495.175155	675.5999756
1495.694742	677.7999878
1496.214274	673.5999756
1496.733752	674.2000122
1497.253175	676.0
1497.772544	673.2000122
1498.291858	674.2000122
1498.811116	673.7999878
1499.330321	676.5999756
1499.84947	679.0
1500.368565	673.7999878
1500.887605	674.5999756
1501.406591	676.0
1501.925521	676.5999756
1502.444397	675.4000244
1502.963219	673.0
1503.481985	674.7999878
1504.000697	674.4000244
1504.519355	674.2000122
1505.037957	672.7999878
1505.556505	673.5999756
1506.074999	676.2000122
1506.593437	670.7999878
1507.111821	674.7999878
1507.63015	675.2000122
1508.148425	675.5999756
1508.666645	673.5999756
1509.18481	673.2000122
1509.702921	675.4000244
1510.220977	672.4000244
1510.738979	679.4000244
1511.256925	673.2000122
1511.774817	672.7999878
1512.292655	676.2000122
1512.810438	674.0
1513.328166	674.4000244
1513.84584	675.4000244
1514.363459	674.5999756
1514.881023	676.0
1515.398533	673.7999878
1515.915988	673.5999756
1516.433389	673.0
1516.950734	673.7999878
1517.468026	672.2000122
1517.985263	672.4000244
1518.502445	673.7999878
1519.019572	673.2000122
1519.536645	676.0
1520.053664	673.7999878
1520.570628	674.7999878
1521.087537	677.0
1521.604392	677.4000244
1522.121192	672.5999756
1522.637937	673.7999878
1523.154628	676.7999878
1523.671265	673.7999878
1524.187847	676.7999878
1524.704374	674.2000122
1525.220847	677.0
1525.737265	673.7999878
1526.253629	676.4000244
1526.769938	673.7999878
1527.286192	676.2000122
1527.802392	675.4000244
1528.318538	674.7999878
1528.834629	677.2000122
1529.350666	675.0
1529.866648	678.5999756
1530.382575	672.0
1530.898448	677.2000122
1531.414266	674.4000244
1531.93003	670.2000122
1532.44574	675.4000244
1532.961395	675.5999756
1533.476995	676.4000244
1533.992541	672.2000122
1534.508033	674.2000122
1535.02347	674.5999756
1535.538852	673.0
1536.05418	673.7999878
1536.569454	672.7999878
1537.084673	669.7999878
1537.599837	672.7999878
1538.114947	673.0
1538.630003	673.0
1539.145004	672.7999878
1539.659951	675.4000244
1540.174843	674.0
1540.689681	674.2000122
1541.204465	669.2000122
1541.719194	674.5999756
1542.233868	674.4000244
1542.748488	676.2000122
1543.263054	671.7999878
1543.777565	674.0
1544.292022	671.0
1544.806424	676.7999878
1545.320772	674.7999878
1545.835066	674.4000244
1546.349305	673.0
1546.863489	674.4000244
1547.37762	674.4000244
1547.891696	671.4000244
1548.405717	676.4000244
1548.919684	674.5999756
1549.433597	678.7999878
1549.947455	673.0
1550.461259	674.5999756
1550.975009	674.5999756
1551.488704	673.7999878
1552.002345	674.5999756
1552.515931	675.0
1553.029463	674.7999878
1553.542941	673.2000122
1554.056364	672.7999878
1554.569733	674.7999878
1555.083048	674.5999756
1555.596308	674.2000122
1556.109514	673.4000244
1556.622665	672.7999878
1557.135762	676.5999756
1557.648805	678.0
1558.161794	672.7999878
1558.674728	672.0
1559.187608	675.2000122
1559.700433	675.5999756
1560.213205	672.7999878
1560.725921	672.5999756
1561.238584	674.0
1561.751192	675.2000122
1562.263746	674.7999878
1562.776246	672.5999756
1563.288691	673.0
1563.801082	672.2000122
1564.313419	670.7999878
1564.825701	673.5999756
1565.337929	674.5999756
1565.850103	674.5999756
1566.362223	671.7999878
1566.874288	673.7999878
1567.386299	673.4000244
1567.898256	672.5999756
1568.410158	671.7999878
1568.922007	673.7999878
1569.4338	670.7999878
1569.94554	674.2000122
1570.457226	672.2000122
1570.968857	673.2000122
1571.480434	675.7999878
1571.991956	674.5999756
1572.503425	673.2000122
1573.014839	671.0
1573.526199	674.2000122
1574.037505	675.4000244
1574.548756	673.4000244
1575.059953	671.7999878
1575.571096	674.4000244
1576.082185	673.7999878
1576.59322	672.7999878
1577.1042	672.7999878
1577.615126	673.4000244
1578.125998	670.7999878
1578.636816	672.7999878
1579.14758	671.7999878
1579.658289	673.0
1580.168944	674.5999756
1580.679545	677.7999878
1581.190092	676.0
1581.700585	674.7999878
1582.211023	672.7999878
1582.721407	676.7999878
1583.231737	675.2000122
1583.742013	675.7999878
1584.252235	676.0
1584.762403	674.0
1585.272516	672.4000244
1585.782575	672.4000244
1586.292581	673.4000244
1586.802532	672.4000244
1587.312428	670.5999756
1587.822271	671.7999878
1588.33206	671.4000244
1588.841794	674.4000244
1589.351474	674.0
1589.8611	672.4000244
1590.370672	674.7999878
1590.88019	674.2000122
1591.389654	672.4000244
1591.899064	675.5999756
1592.408419	673.5999756
