1042.452273	1383.0
1043.018714	1381.199951
1043.585098	1379.599976
1044.151424	1387.800049
1044.717692	1372.0
1045.283903	1388.400024
1045.850056	1369.800049
1046.416151	1370.0
1046.982188	1384.599976
1047.548167	1375.400024
1048.114089	1391.0
1048.679953	1380.0
1049.24576	1388.800049
1049.811509	1383.400024
1050.3772	1377.0
1050.942833	1378.199951
1051.508408	1393.400024
1052.073926	1376.599976
1052.639387	1387.599976
1053.204789	1380.800049
1053.770134	1385.800049
1054.335421	1374.400024
1054.900651	1362.400024
1055.465823	1387.800049
1056.030937	1392.0
1056.595993	1387.199951
1057.160992	1386.599976
1057.725934	1381.800049
1058.290817	1388.0
1058.855643	1372.599976
1059.420411	1386.0
1059.985122	1387.199951
1060.549775	1369.0
1061.114371	1383.199951
1061.678908	1385.599976
1062.243389	1377.599976
1062.807811	1378.800049
1063.372176	1379.800049
1063.936483	1382.599976
1064.500733	1374.599976
1065.064925	1369.800049
1065.62906	1370.199951
1066.193137	1370.599976
1066.757156	1382.599976
1067.321118	1383.800049
1067.885022	1370.0
1068.448869	1367.400024
1069.012658	1392.400024
1069.57639	1372.400024
1070.140063	1377.599976
1070.70368	1392.800049
1071.267239	1382.199951
1071.83074	1378.0
1072.394184	1376.800049
1072.95757	1378.400024
1073.520899	1382.199951
1074.08417	1370.400024
1074.647383	1378.400024
1075.21054	1380.0
1075.773638	1378.199951
1076.336679	1386.800049
1076.899663	1382.0
1077.462589	1374.0
1078.025457	1370.400024
1078.588268	1382.0
1079.151022	1381.199951
1079.713718	1376.0
1080.276356	1370.199951
1080.838937	1377.400024
1081.401461	1381.400024
1081.963927	1378.0
1082.526336	1379.599976
1083.088687	1380.199951
1083.650981	1381.199951
1084.213217	1370.400024
1084.775396	1365.199951
1085.337517	1360.800049
1085.899581	1373.599976
1086.461587	1374.400024
1087.023536	1386.400024
1087.585428	1381.199951
1088.147262	1380.0
1088.709039	1375.800049
1089.270758	1363.800049
1089.83242	1371.400024
1090.394024	1362.599976
1090.955571	1355.800049
1091.517061	1371.599976
1092.078493	1368.599976
1092.639868	1353.0
1093.201185	1354.0
1093.762445	1357.199951
1094.323648	1373.199951
1094.884793	1350.0
1095.445881	1355.0
1096.006911	1362.800049
1096.567884	1361.400024
1097.1288	1361.599976
1097.689659	1362.400024
1098.25046	1371.400024
1098.811203	1360.0
1099.37189	1354.400024
1099.932518	1358.400024
1100.49309	1358.800049
1101.053604	1349.400024
1101.614061	1341.199951
1102.174461	1349.199951
1102.734803	1352.800049
1103.295088	1355.800049
1103.855316	1355.0
1104.415486	1357.800049
1104.975599	1345.199951
1105.535655	1354.199951
1106.095653	1352.199951
1106.655594	1354.800049
1107.215478	1346.400024
1107.775305	1341.199951
1108.335074	1337.0
1108.894786	1336.199951
1109.45444	1344.599976
1110.014038	1337.400024
1110.573578	1340.599976
1111.133061	1353.0
1111.692486	1338.400024
1112.251854	1328.599976
1112.811165	1320.800049
1113.370419	1342.599976
1113.929616	1326.599976
1114.488755	1347.400024
1115.047837	1340.599976
1115.606862	1338.0
1116.16583	1338.800049
1116.72474	1330.400024
1117.283593	1325.400024
1117.842389	1334.800049
1118.401128	1327.800049
1118.959809	1337.800049
1119.518433	1321.0
1120.077	1331.599976
1120.63551	1327.800049
1121.193963	1322.400024
1121.752358	1330.800049
1122.310697	1332.0
1122.868978	1332.400024
1123.427202	1330.800049
1123.985368	1325.800049
1124.543478	1329.400024
1125.10153	1332.199951
1125.659526	1320.800049
1126.217464	1321.199951
1126.775345	1321.400024
1127.333168	1319.800049
1127.890935	1328.800049
1128.448644	1326.599976
1129.006297	1306.800049
1129.563892	1305.0
1130.12143	1324.599976
1130.678911	1324.199951
1131.236335	1318.0
1131.793701	1316.199951
1132.351011	1318.199951
1132.908263	1323.800049
1133.465458	1323.800049
1134.022597	1311.800049
1134.579678	1312.199951
1135.136702	1312.800049
1135.693669	1307.800049
1136.250578	1304.0
1136.807431	1311.800049
1137.364227	1301.599976
1137.920965	1308.599976
1138.477647	1293.0
1139.034271	1311.400024
1139.590839	1304.599976
1140.147349	1291.400024
1140.703802	1311.800049
1141.260198	1298.800049
1141.816537	1293.0
1142.37282	1301.199951
1142.929045	1302.599976
1143.485213	1306.0
1144.041323	1293.0
1144.597377	1303.400024
1145.153374	1287.800049
1145.709314	1306.800049
1147.376792	1281.400024
1147.932503	1309.199951
1148.488158	1288.0
1149.043756	1278.400024
1149.599297	1293.199951
1150.154781	1282.400024
1150.710207	1294.0
1151.265577	1284.599976
1151.82089	1294.800049
1152.376146	1283.599976
1152.931345	1280.800049
1153.486487	1285.199951
1154.041572	1285.400024
1154.5966	1295.199951
1155.151571	1288.800049
1155.706485	1271.199951
1156.261342	1264.0
1156.816142	1273.199951
1157.370885	1272.199951
1157.925572	1270.800049
1158.480201	1290.599976
1159.034774	1278.800049
1159.589289	1278.0
1160.143748	1275.800049
1160.698149	1286.400024
1161.252494	1271.0
1161.806782	1264.599976
1162.361013	1256.800049
1162.915187	1256.199951
1163.469304	1276.0
1164.023364	1273.0
1164.577368	1271.0
1165.131314	1272.599976
1165.685204	1265.599976
1166.239036	1272.800049
1166.792812	1268.400024
1167.346531	1274.400024
1167.900193	1254.400024
1168.453798	1280.199951
1169.007347	1265.400024
1169.560838	1263.400024
1170.114273	1257.599976
1170.66765	1265.800049
1171.220971	1268.400024
1171.774235	1252.0
1172.327443	1259.0
1172.880593	1265.0
1173.433687	1264.599976
1173.986723	1252.0
1174.539703	1258.0
1175.092626	1262.599976
1175.645493	1245.400024
1176.198302	1252.800049
1176.751055	1271.199951
1177.303751	1269.599976
1177.85639	1267.800049
1178.408972	1261.800049
1178.961498	1267.599976
1179.513966	1242.400024
1180.066378	1241.199951
1180.618733	1253.0
1181.171032	1246.400024
1181.723273	1254.199951
1182.275458	1248.199951
1182.827586	1262.400024
1183.379657	1245.199951
1183.931672	1246.199951
1184.48363	1245.0
1185.035531	1259.400024
1185.587375	1248.800049
1186.139162	1252.400024
1186.690893	1255.400024
1187.242567	1250.599976
1187.794184	1255.400024
1188.345745	1243.199951
1188.897249	1244.199951
1189.448696	1236.599976
1190.000086	1248.400024
1190.55142	1242.599976
1191.102697	1246.800049
1191.653918	1244.599976
1192.205081	1254.400024
1192.756188	1238.199951
1193.307238	1260.199951
1193.858232	1254.199951
1194.409169	1250.0
1194.960049	1229.800049
1195.510872	1242.0
1196.061639	1231.800049
1196.612349	1224.199951
1197.163003	1230.0
1197.713599	1232.400024
1198.264139	1232.599976
1198.814623	1237.400024
1199.36505	1230.599976
1199.91542	1224.400024
1200.465734	1225.800049
1201.01599	1235.0
1201.566191	1224.199951
1202.116334	1233.599976
1202.666421	1236.199951
1203.216452	1226.400024
1203.766425	1236.400024
1204.316343	1228.199951
1204.866203	1247.0
1205.416007	1227.199951
1205.965754	1228.599976
1206.515445	1228.599976
1207.065079	1248.599976
1207.614657	1234.599976
1208.164177	1230.800049
1208.713642	1220.599976
1209.26305	1233.599976
1209.812401	1230.199951
1210.361695	1239.599976
1210.910933	1222.800049
1211.460115	1226.599976
1212.00924	1225.199951
1212.558308	1228.0
1213.10732	1232.400024
1213.656275	1213.599976
1214.205174	1228.800049
1214.754016	1220.599976
1215.302801	1237.0
1215.85153	1226.800049
1216.400203	1229.0
1216.948819	1222.199951
1217.497378	1223.599976
1218.045881	1217.599976
1218.594327	1217.199951
1219.142717	1227.800049
1219.691051	1220.800049
1220.239327	1227.199951
1220.787548	1223.800049
1221.335712	1221.0
1221.883819	1228.199951
1222.43187	1220.800049
1222.979864	1226.199951
1223.527802	1235.800049
1224.075683	1219.800049
1224.623508	1232.599976
1225.171277	1221.599976
1225.718989	1221.400024
1226.266644	1223.400024
1226.814243	1225.400024
1227.361786	1228.0
1227.909272	1211.599976
1228.456702	1229.0
1229.004075	1230.0
1229.551392	1229.199951
1230.098652	1228.800049
1230.645856	1217.599976
1231.193003	1222.199951
1231.740094	1228.400024
1232.287129	1239.0
1232.834107	1212.800049
1233.381029	1234.599976
1233.927894	1236.199951
1234.474703	1229.199951
1235.021455	1234.599976
1235.568151	1222.400024
1236.114791	1227.599976
1236.661374	1226.800049
1237.207901	1226.400024
1237.754372	1224.599976
1238.300786	1221.800049
1238.847144	1246.199951
1239.393445	1223.599976
1239.93969	1227.199951
1240.485879	1236.0
1241.032011	1232.199951
1241.578087	1234.400024
1242.124106	1235.0
1242.67007	1234.400024
1243.215976	1230.199951
1243.761827	1236.800049
1244.307621	1223.199951
1244.853359	1231.599976
1245.39904	1234.0
1245.944665	1232.0
1246.490234	1249.400024
1247.035746	1241.0
1247.581203	1243.0
1248.126602	1235.199951
1248.671946	1245.199951
1249.217233	1232.800049
1249.762464	1241.599976
1250.307638	1237.400024
1250.852757	1237.0
1251.397819	1230.599976
1251.942824	1235.0
1252.487774	1240.0
1253.032667	1238.800049
1253.577503	1237.400024
1254.122284	1234.0
1254.667008	1240.0
1255.211676	1231.199951
1255.756288	1231.199951
1256.300843	1218.800049
1256.845342	1239.199951
1257.389785	1241.0
1257.934172	1233.0
1258.478502	1243.400024
1259.022776	1238.0
1259.566994	1251.400024
1260.655261	1236.800049
1261.199311	1237.199951
1261.743304	1244.800049
1262.28724	1242.0
1262.831121	1243.199951
1263.374945	1254.599976
1263.918713	1266.599976
1264.462425	1274.199951
1265.006081	1328.800049
1265.54968	1327.400024
1266.093223	1281.800049
1266.636711	1269.599976
1267.180141	1254.400024
1267.723516	1236.199951
1268.266835	1253.800049
1268.810097	1239.0
1269.353303	1224.400024
1269.896453	1245.800049
1270.439547	1242.599976
1270.982584	1228.599976
1271.525566	1240.199951
1272.068491	1249.199951
1272.61136	1243.199951
1273.154173	1240.800049
1273.69693	1234.199951
1274.239631	1239.0
1274.782275	1234.199951
1275.324864	1257.800049
1275.867396	1243.800049
1276.409872	1239.400024
1276.952292	1244.199951
1277.494656	1242.0
1278.036964	1238.800049
1278.579215	1242.0
1279.121411	1245.0
1279.66355	1247.599976
1280.205634	1238.400024
1280.747661	1241.400024
1281.289632	1246.800049
1281.831547	1245.800049
1282.373406	1239.199951
1282.915209	1268.599976
1283.456955	1288.599976
1283.998646	1340.400024
1284.540281	1513.0
1285.081859	2119.199951
1285.623381	2676.600098
1286.164848	1861.800049
1286.706258	1384.400024
1287.247612	1298.599976
1287.788911	1261.0
1288.330153	1259.0
1288.871339	1259.0
1289.412469	1242.800049
1289.953543	1239.0
1290.494561	1242.599976
1291.035523	1229.599976
1291.576428	1238.0
1292.117278	1227.0
1292.658072	1234.199951
1293.19881	1236.599976
1293.739492	1225.199951
1294.280118	1235.199951
1294.820687	1243.0
1295.361201	1234.800049
1295.901659	1218.0
1296.442061	1233.599976
1296.982406	1214.400024
1297.522696	1231.199951
1298.06293	1224.400024
1298.603108	1234.599976
1299.143229	1217.199951
1299.683295	1221.199951
1300.223305	1230.400024
1300.763259	1232.400024
1301.303157	1207.0
1301.842999	1224.599976
1302.382785	1220.599976
1302.922515	1224.0
1303.462189	1231.400024
1304.001807	1230.0
1304.541369	1218.800049
1305.080875	1232.800049
1305.620326	1218.800049
1306.15972	1221.599976
1306.699058	1216.199951
1307.238341	1213.400024
1307.777567	1203.400024
1308.316738	1219.199951
1308.855853	1212.599976
1309.394912	1217.800049
1309.933915	1216.800049
1310.472862	1216.800049
1311.011753	1209.400024
1311.550588	1201.199951
1312.089367	1212.800049
1312.62809	1227.0
1313.166758	1205.400024
1313.70537	1205.0
1314.243925	1227.0
1314.782425	1200.400024
1315.320869	1209.599976
1315.859257	1213.599976
1316.397589	1204.400024
1316.935866	1205.599976
1317.474086	1202.199951
1318.012251	1199.599976
1318.55036	1197.400024
1319.088413	1205.599976
1319.62641	1208.599976
1320.164351	1203.0
1320.702236	1193.0
1321.240066	1202.0
1321.777839	1188.800049
1322.315557	1200.199951
1322.853219	1192.400024
1323.390826	1200.199951
1323.928376	1188.400024
1324.465871	1192.199951
1325.003309	1183.400024
1325.540692	1186.400024
1326.07802	1195.0
1326.615291	1195.0
1327.152506	1192.400024
1327.689666	1192.599976
1328.22677	1201.199951
1328.763818	1190.199951
1329.300811	1191.400024
1329.837747	1190.800049
1330.374628	1183.199951
1330.911453	1184.599976
1331.448222	1183.199951
1331.984936	1184.599976
1332.521594	1189.0
1333.058196	1186.0
1333.594742	1177.0
1334.131232	1179.0
1334.667667	1177.0
1335.204046	1183.800049
1335.740369	1175.0
1336.276637	1170.199951
1336.812848	1173.400024
1337.349004	1178.199951
1337.885105	1175.800049
1338.421149	1177.599976
1338.957138	1182.199951
1339.493071	1175.400024
1340.028949	1173.400024
1340.56477	1158.400024
1341.100536	1162.400024
1341.636246	1163.199951
1342.171901	1169.199951
1342.7075	1167.400024
1343.243043	1158.400024
1343.77853	1175.599976
1344.313962	1174.800049
1344.849338	1176.0
1345.384659	1166.599976
1345.919923	1158.400024
1346.455133	1160.599976
1346.990286	1164.199951
1347.525384	1164.400024
1348.060426	1157.400024
1348.595412	1163.800049
1349.130343	1170.599976
1349.665218	1170.0
1350.200037	1158.199951
1350.734801	1169.0
1351.269509	1156.400024
1351.804162	1154.199951
1352.338758	1158.599976
1352.8733	1153.800049
1353.407785	1158.599976
1353.942215	1156.800049
1354.476589	1152.400024
1355.010908	1161.599976
1355.545171	1157.400024
1356.079379	1152.599976
1356.61353	1146.400024
1357.147627	1157.0
1357.681667	1156.0
1358.215652	1153.400024
1358.749582	1157.800049
1359.283456	1160.199951
1359.817274	1156.599976
1360.351037	1138.0
1360.884744	1141.400024
1361.418395	1145.800049
1361.951991	1152.599976
1362.485531	1152.599976
1363.019016	1143.800049
1363.552445	1156.599976
1364.085819	1153.800049
1364.619137	1147.599976
1365.1524	1140.599976
1365.685607	1141.199951
1366.218758	1146.599976
1366.751854	1141.199951
1367.284894	1142.400024
1367.817879	1132.0
1368.350808	1148.800049
1368.883682	1136.400024
1369.4165	1149.400024
1369.949263	1154.0
1370.48197	1181.0
1371.014622	1154.199951
1371.547218	1146.800049
1372.079758	1147.599976
1372.612244	1145.0
1373.144673	1134.400024
1373.677047	1131.800049
1374.209366	1140.400024
1374.741629	1145.400024
1375.273836	1133.400024
1375.805989	1138.400024
1376.338085	1142.199951
1376.870126	1140.0
1377.402112	1128.800049
1377.934042	1137.0
1378.465917	1142.400024
1378.997736	1139.0
1379.5295	1139.800049
1380.061208	1133.599976
1380.592861	1142.0
1381.124459	1148.0
1381.656	1125.199951
1382.187487	1135.400024
1382.718918	1137.0
1383.250294	1151.199951
1383.781614	1132.0
1384.312879	1144.400024
1384.844088	1156.599976
1385.375242	1156.599976
1385.90634	1152.800049
1386.437383	1191.800049
1386.968371	1191.599976
1387.499303	1277.800049
1388.03018	1612.0
1388.561001	2980.800049
1389.091767	3005.399902
1389.622478	1556.0
1390.153133	1257.400024
1390.683733	1177.599976
1391.214277	1164.599976
1391.744766	1155.400024
1392.2752	1135.800049
1392.805578	1147.599976
1393.335901	1138.0
1393.866168	1134.400024
1394.396381	1136.400024
1394.926537	1121.199951
1395.456639	1123.599976
1395.986685	1132.199951
1396.516675	1131.400024
1397.046611	1121.800049
1397.576491	1134.0
1398.106315	1123.0
1398.636084	1128.199951
1399.165798	1129.400024
1399.695457	1131.0
1400.22506	1122.800049
1400.754608	1118.199951
1401.284101	1130.199951
1401.813538	1125.599976
1402.34292	1112.599976
1402.872247	1137.199951
1403.401518	1122.0
1403.930734	1111.199951
1404.459895	1124.0
1404.989	1134.199951
1405.51805	1133.400024
1406.047045	1120.199951
1406.575984	1127.800049
1407.104869	1122.400024
1407.633697	1140.0
1408.162471	1134.199951
1408.691189	1141.400024
1409.219852	1176.599976
1409.74846	1253.800049
1410.277013	1296.199951
1410.80551	1222.800049
1411.333952	1165.0
1411.862339	1134.0
1412.39067	1131.800049
1412.918946	1132.0
1413.447167	1124.199951
1413.975333	1127.400024
1414.503444	1133.0
1415.031499	1131.599976
1415.559499	1127.199951
1416.087444	1111.0
1416.615333	1138.400024
1417.143167	1126.0
1417.670947	1128.0
1418.19867	1134.400024
1418.726339	1126.599976
1419.253952	1127.0
1419.781511	1124.199951
1420.309014	1119.400024
1420.836461	1127.800049
1421.363854	1130.0
1421.891191	1117.800049
1422.418474	1125.0
1422.945701	1115.800049
1423.472872	1119.199951
1423.999989	1135.800049
1424.52705	1131.199951
1425.054057	1131.599976
1425.581008	1126.599976
1426.107904	1136.199951
1426.634745	1122.199951
1427.16153	1130.800049
1427.688261	1137.800049
1428.214936	1125.800049
1428.741556	1131.599976
1429.268121	1112.199951
1429.794631	1135.0
1430.321085	1117.0
1430.847485	1118.800049
1431.373829	1123.599976
1431.900118	1126.599976
1432.426353	1124.800049
1432.952532	1116.599976
1433.478655	1136.199951
1434.004724	1127.800049
1434.530738	1125.599976
1435.056696	1129.400024
1435.5826	1128.199951
1436.108448	1125.400024
1436.634241	1120.400024
1437.159979	1117.400024
1437.685662	1129.400024
1438.21129	1120.199951
1438.736863	1124.800049
1439.262381	1124.400024
1439.787843	1116.400024
1440.313251	1122.199951
1440.838603	1120.400024
1441.3639	1126.800049
1441.889143	1136.199951
1442.41433	1130.199951
1442.939462	1128.199951
1443.464539	1121.0
1443.989561	1118.599976
1444.514528	1125.400024
1445.03944	1133.800049
1445.564297	1121.800049
1446.089099	1129.199951
1446.613846	1119.400024
1447.138537	1116.199951
1447.663174	1117.400024
1448.187756	1126.800049
1448.712282	1122.800049
1449.236754	1124.800049
1449.761171	1132.0
1450.285532	1131.800049
1450.809839	1120.800049
1451.33409	1130.0
1451.858287	1135.800049
1452.382428	1112.400024
1452.906515	1121.599976
1453.430546	1130.400024
1453.954523	1114.400024
1454.478444	1122.0
1455.002311	1128.800049
1455.526123	1125.400024
1456.049879	1128.800049
1456.573581	1116.800049
1457.097227	1127.800049
1457.620819	1121.0
1458.144356	1118.400024
1458.667837	1121.599976
1459.191264	1122.599976
1459.714636	1135.0
1460.237952	1118.599976
1460.761214	1123.800049
1461.284421	1124.400024
1461.807573	1124.0
1462.33067	1119.199951
1462.853712	1110.800049
1463.376699	1118.199951
1463.899632	1131.400024
1464.422509	1120.400024
1464.945331	1119.800049
1465.468099	1133.800049
1465.990811	1119.400024
1466.513469	1124.599976
1467.036071	1123.400024
1467.558619	1127.599976
1468.081112	1126.199951
1468.60355	1124.599976
1469.125933	1128.0
1469.648261	1122.800049
1470.170534	1136.400024
1470.692752	1124.400024
1471.214916	1118.599976
1471.737024	1130.199951
1472.259078	1128.599976
1472.781077	1133.199951
1473.303021	1121.599976
1473.82491	1123.599976
1474.346744	1113.800049
1474.868523	1125.400024
1475.390248	1124.199951
1475.911917	1122.0
1476.433532	1120.599976
1476.955092	1122.199951
1477.476597	1114.400024
1477.998047	1119.400024
1478.519442	1135.800049
1479.040783	1128.199951
1479.562068	1122.599976
1480.083299	1114.199951
1480.604475	1123.0
1481.125596	1120.599976
1481.646663	1122.400024
1482.167674	1108.0
1482.688631	1121.199951
1483.209533	1123.199951
1483.73038	1117.599976
1484.251172	1110.400024
1484.771909	1118.400024
1485.292592	1123.800049
1485.81322	1108.400024
1486.333793	1113.400024
1486.854311	1112.400024
1487.374775	1128.199951
1487.895183	1125.0
1488.415537	1112.199951
1488.935836	1110.800049
1489.456081	1110.199951
1489.97627	1104.199951
1490.496405	1109.400024
1491.016485	1107.199951
1491.536511	1098.599976
1492.056481	1109.800049
1492.576397	1101.0
1493.096258	1099.0
1493.616064	1112.0
1494.135816	1117.0
1494.655513	1103.599976
1495.175155	1117.0
1495.694742	1105.0
1496.214274	1111.400024
1496.733752	1116.400024
1497.253175	1120.199951
1497.772544	1106.800049
1498.291858	1117.0
1498.811116	1103.199951
1499.330321	1107.400024
1499.84947	1106.199951
1500.368565	1110.800049
1500.887605	1107.400024
1501.406591	1095.400024
1501.925521	1102.599976
1502.444397	1100.199951
1502.963219	1097.599976
1503.481985	1116.400024
1504.000697	1095.599976
1504.519355	1099.599976
1505.037957	1096.800049
1505.556505	1098.800049
1506.074999	1086.0
1506.593437	1092.199951
1507.111821	1104.199951
1507.63015	1103.400024
1508.666645	1102.599976
1509.18481	1096.0
1509.702921	1093.599976
1510.220977	1104.800049
1510.738979	1103.800049
1511.256925	1092.800049
1511.774817	1106.0
1512.292655	1098.599976
1512.810438	1098.400024
1513.328166	1097.800049
1513.84584	1085.400024
1514.363459	1088.800049
1514.881023	1088.400024
1515.398533	1088.0
1515.915988	1092.800049
1516.433389	1098.599976
1516.950734	1089.0
1517.468026	1087.199951
1517.985263	1093.400024
1518.502445	1083.0
1519.019572	1086.199951
1519.536645	1081.599976
1520.053664	1095.0
1520.570628	1091.199951
1521.087537	1077.0
1521.604392	1092.199951
1522.121192	1082.599976
1522.637937	1092.400024
1523.154628	1070.599976
1523.671265	1086.400024
1524.187847	1089.199951
1524.704374	1082.400024
1525.220847	1077.0
1525.737265	1082.400024
1526.253629	1077.0
1526.769938	1082.800049
1527.286192	1074.199951
1527.802392	1083.0
1528.318538	1074.800049
1528.834629	1094.400024
1529.350666	1075.800049
1529.866648	1077.0
1530.382575	1083.400024
1530.898448	1075.400024
1531.414266	1075.199951
1531.93003	1063.199951
1532.44574	1087.800049
1532.961395	1082.599976
1533.476995	1078.599976
1533.992541	1070.800049
1534.508033	1075.599976
1535.02347	1078.0
1535.538852	1079.800049
1536.05418	1064.199951
1536.569454	1073.800049
1537.084673	1064.199951
1537.599837	1074.800049
1538.114947	1068.0
1538.630003	1067.800049
1539.145004	1072.199951
1539.659951	1077.0
1540.174843	1077.199951
1540.689681	1069.800049
1541.204465	1069.800049
1541.719194	1062.400024
1542.233868	1050.0
1542.748488	1060.199951
1543.263054	1065.0
1543.777565	1063.0
1544.292022	1075.800049
1544.806424	1070.0
1545.320772	1064.400024
1545.835066	1062.0
1546.349305	1075.0
1546.863489	1068.199951
1547.37762	1068.199951
1547.891696	1070.0
1548.405717	1064.199951
1548.919684	1059.599976
1549.433597	1066.599976
1549.947455	1064.599976
1550.461259	1059.0
1550.975009	1058.199951
1551.488704	1060.400024
1552.002345	1048.599976
1552.515931	1059.199951
1553.029463	1061.800049
1553.542941	1073.800049
1554.056364	1062.400024
1554.569733	1056.0
1555.083048	1054.800049
1555.596308	1054.800049
1556.109514	1057.400024
1556.622665	1047.199951
1557.135762	1056.400024
1557.648805	1055.199951
1558.161794	1053.199951
1558.674728	1054.199951
1559.187608	1064.599976
1559.700433	1051.199951
1560.213205	1049.800049
1560.725921	1063.0
1561.238584	1043.400024
1561.751192	1054.0
1562.263746	1062.599976
1562.776246	1046.199951
1563.288691	1044.599976
1563.801082	1062.599976
1564.313419	1055.0
1564.825701	1058.0
1565.337929	1057.400024
1565.850103	1049.599976
1566.362223	1051.599976
1566.874288	1034.599976
1567.898256	1040.400024
1568.410158	1053.800049
1568.922007	1049.199951
1569.4338	1046.400024
1569.94554	1043.800049
1570.457226	1051.400024
1570.968857	1040.400024
1571.480434	1053.400024
1571.991956	1046.599976
1572.503425	1049.599976
1573.014839	1046.400024
1573.526199	1043.800049
1574.037505	1048.199951
1574.548756	1041.599976
1575.059953	1045.400024
1575.571096	1049.400024
1576.082185	1042.800049
1576.59322	1045.0
1577.1042	1040.0
1577.615126	1047.599976
1578.125998	1043.400024
1578.636816	1049.199951
1579.14758	1050.400024
1579.658289	1046.400024
1580.168944	1041.0
1580.679545	1050.0
1581.190092	1046.800049
1581.700585	1043.400024
1582.211023	1041.199951
1582.721407	1041.800049
1583.231737	1046.400024
1583.742013	1037.199951
1584.252235	1039.400024
1584.762403	1049.0
1585.272516	1039.599976
1585.782575	1047.199951
1586.292581	1050.199951
1586.802532	1045.599976
1587.312428	1043.400024
1587.822271	1050.400024
1588.33206	1045.199951
1588.841794	1047.0
1589.351474	1042.400024
1589.8611	1044.0
1590.370672	1051.400024
1590.88019	1045.599976
1591.389654	1047.0
1591.899064	1043.0
1592.408419	1041.400024
