1042.452273	690.5999756
1043.018714	690.4000244
1043.585098	693.2000122
1044.151424	684.4000244
1044.717692	687.2000122
1045.283903	684.7999878
1045.850056	689.7999878
1046.416151	685.5999756
1046.982188	683.7999878
1047.548167	682.0
1048.114089	682.7999878
1048.679953	682.7999878
1049.24576	682.5999756
1049.811509	686.5999756
1050.3772	682.4000244
1050.942833	685.7999878
1051.508408	682.0
1052.073926	681.2000122
1052.639387	679.7999878
1053.204789	683.2000122
1053.770134	680.5999756
1054.335421	684.5999756
1054.900651	680.0
1055.465823	679.0
1056.030937	678.4000244
1056.595993	684.2000122
1057.160992	682.0
1057.725934	679.7999878
1058.290817	677.5999756
1058.855643	682.0
1059.420411	676.2000122
1059.985122	678.5999756
1060.549775	682.4000244
1061.114371	681.0
1061.678908	677.4000244
1062.243389	677.7999878
1062.807811	681.4000244
1063.372176	678.0
1063.936483	680.0
1064.500733	680.7999878
1065.064925	680.7999878
1065.62906	677.7999878
1066.193137	680.0
1066.757156	677.2000122
1067.321118	676.0
1067.885022	677.7999878
1068.448869	681.2000122
1069.012658	679.5999756
1069.57639	678.4000244
1070.140063	683.4000244
1070.70368	675.7999878
1071.267239	678.5999756
1071.83074	677.4000244
1072.394184	679.4000244
1072.95757	680.5999756
1073.520899	677.5999756
1074.08417	676.2000122
1074.647383	678.0
1075.21054	675.4000244
1075.773638	679.7999878
1076.336679	678.4000244
1076.899663	679.7999878
1077.462589	676.0
1078.025457	678.5999756
1078.588268	678.0
1079.151022	676.4000244
1079.713718	676.7999878
1080.276356	677.7999878
1080.838937	677.0
1081.401461	677.5999756
1081.963927	677.5999756
1082.526336	680.0
1083.088687	675.7999878
1083.650981	677.4000244
1084.213217	677.0
1084.775396	673.0
1085.337517	678.2000122
1085.899581	678.4000244
1086.461587	674.7999878
1087.023536	673.2000122
1087.585428	675.5999756
1088.147262	676.4000244
1088.709039	677.4000244
1089.270758	679.0
1089.83242	673.7999878
1090.394024	674.4000244
1090.955571	677.7999878
1091.517061	674.7999878
1092.078493	679.5999756
1092.639868	676.2000122
1093.201185	678.0
1093.762445	677.4000244
1094.323648	675.4000244
1094.884793	675.7999878
1095.445881	677.5999756
1096.006911	674.4000244
1096.567884	676.4000244
1097.1288	681.2000122
1097.689659	679.5999756
1098.25046	678.5999756
1098.811203	677.7999878
1099.37189	679.0
1099.932518	681.7999878
1100.49309	678.7999878
1101.053604	676.4000244
1101.614061	674.4000244
1102.174461	676.2000122
1102.734803	674.0
1103.295088	678.4000244
1103.855316	675.7999878
1104.415486	676.5999756
1104.975599	676.2000122
1105.535655	677.5999756
1106.095653	675.7999878
1106.655594	675.7999878
1107.215478	675.5999756
1107.775305	680.2000122
1108.335074	676.0
1108.894786	678.2000122
1109.45444	676.7999878
1110.014038	678.5999756
1110.573578	676.7999878
1111.133061	678.5999756
1111.692486	673.5999756
1112.251854	675.7999878
1112.811165	676.7999878
1113.370419	676.0
1113.929616	674.5999756
1114.488755	678.2000122
1115.047837	675.0
1115.606862	678.7999878
1116.16583	677.4000244
1116.72474	679.2000122
1117.283593	676.4000244
1117.842389	676.4000244
1118.401128	675.7999878
1118.959809	676.4000244
1119.518433	676.7999878
1120.077	675.4000244
1120.63551	677.7999878
1121.193963	677.2000122
1121.752358	676.2000122
1122.310697	675.5999756
1122.868978	677.7999878
1123.427202	673.5999756
1123.985368	673.4000244
1124.543478	677.0
1125.10153	673.5999756
1125.659526	678.0
1126.217464	677.0
1126.775345	674.2000122
1127.333168	678.2000122
1127.890935	679.4000244
1128.448644	678.4000244
1129.006297	678.0
1129.563892	678.5999756
1130.12143	680.0
1130.678911	676.5999756
1131.236335	676.7999878
1131.793701	677.4000244
1132.351011	675.5999756
1132.908263	678.5999756
1133.465458	676.2000122
1134.022597	676.0
1134.579678	677.7999878
1135.136702	676.5999756
1135.693669	674.5999756
1136.250578	674.7999878
1136.807431	675.2000122
1137.364227	675.4000244
1137.920965	676.5999756
1138.477647	674.0
1139.034271	678.5999756
1139.590839	678.4000244
1140.147349	675.5999756
1140.703802	674.7999878
1141.260198	676.5999756
1141.816537	675.2000122
1142.37282	676.2000122
1142.929045	675.2000122
1143.485213	676.5999756
1144.041323	677.0
1144.597377	679.0
1145.153374	674.4000244
1145.709314	678.4000244
1146.265197	675.2000122
1146.821023	674.2000122
1147.376792	676.4000244
1147.932503	679.2000122
1148.488158	676.4000244
1149.043756	675.2000122
1149.599297	674.4000244
1150.154781	681.0
1150.710207	689.5999756
1151.265577	688.4000244
1151.82089	677.4000244
1152.376146	677.0
1152.931345	676.4000244
1153.486487	678.2000122
1154.041572	680.5999756
1154.5966	677.4000244
1155.151571	674.4000244
1155.706485	677.7999878
1156.261342	674.7999878
1156.816142	678.7999878
1157.370885	677.5999756
1157.925572	680.0
1158.480201	676.7999878
1159.034774	676.4000244
1159.589289	677.7999878
1160.143748	674.4000244
1160.698149	678.4000244
1161.252494	677.0
1161.806782	676.2000122
1162.361013	676.0
1162.915187	676.4000244
1163.469304	675.0
1164.023364	674.2000122
1164.577368	676.0
1165.131314	673.2000122
1165.685204	675.2000122
1166.239036	673.7999878
1166.792812	674.7999878
1167.346531	676.7999878
1167.900193	676.0
1168.453798	676.4000244
1169.007347	675.4000244
1169.560838	676.5999756
1170.114273	675.5999756
1170.66765	674.0
1171.220971	672.0
1171.774235	678.4000244
1172.327443	676.2000122
1172.880593	675.7999878
1173.433687	676.0
1173.986723	672.4000244
1174.539703	677.0
1175.092626	676.4000244
1175.645493	674.2000122
1176.198302	673.0
1176.751055	675.0
1177.303751	675.5999756
1177.85639	677.0
1178.408972	675.5999756
1178.961498	672.0
1179.513966	675.0
1180.066378	673.4000244
1180.618733	674.2000122
1181.171032	673.5999756
1181.723273	674.4000244
1182.275458	677.5999756
1182.827586	675.4000244
1183.379657	676.5999756
1183.931672	674.5999756
1184.48363	675.2000122
1185.035531	673.4000244
1185.587375	675.5999756
1186.139162	676.0
1186.690893	676.4000244
1187.242567	675.2000122
1187.794184	675.7999878
1188.345745	676.0
1188.897249	671.2000122
1189.448696	675.0
1190.000086	676.5999756
1190.55142	677.0
1191.102697	675.0
1191.653918	675.5999756
1192.205081	673.7999878
1192.756188	676.7999878
1193.858232	677.2000122
1194.409169	676.2000122
1194.960049	675.4000244
1195.510872	674.4000244
1196.061639	678.7999878
1196.612349	674.4000244
1197.163003	678.2000122
1197.713599	675.4000244
1198.264139	679.7999878
1198.814623	673.2000122
1199.36505	677.2000122
1199.91542	677.4000244
1200.465734	675.2000122
1201.01599	675.5999756
1201.566191	673.7999878
1202.116334	676.5999756
1202.666421	680.2000122
1203.216452	675.4000244
1203.766425	677.4000244
1204.316343	677.4000244
1204.866203	677.0
1205.416007	676.0
1205.965754	676.7999878
1206.515445	673.2000122
1207.065079	674.4000244
1207.614657	677.5999756
1208.164177	678.0
1208.713642	677.4000244
1209.26305	678.4000244
1209.812401	674.4000244
1210.361695	674.4000244
1210.910933	677.4000244
1211.460115	677.5999756
1212.00924	676.2000122
1212.558308	674.0
1213.10732	677.7999878
1213.656275	675.7999878
1214.205174	676.5999756
1214.754016	679.0
1215.302801	675.7999878
1215.85153	674.4000244
1216.400203	676.5999756
1216.948819	675.2000122
1217.497378	675.2000122
1218.045881	681.0
1218.594327	681.0
1219.142717	680.5999756
1219.691051	681.0
1220.239327	676.5999756
1220.787548	677.4000244
1221.335712	679.7999878
1221.883819	679.5999756
1222.43187	674.5999756
1222.979864	679.0
1223.527802	679.2000122
1224.075683	680.2000122
1224.623508	676.2000122
1225.171277	677.5999756
1225.718989	680.2000122
1226.266644	675.4000244
1226.814243	676.5999756
1227.361786	675.4000244
1227.909272	677.5999756
1228.456702	678.7999878
1229.004075	676.7999878
1229.551392	678.4000244
1230.098652	680.5999756
1230.645856	682.2000122
1231.193003	678.4000244
1231.740094	680.5999756
1232.287129	678.7999878
1232.834107	678.5999756
1233.381029	674.7999878
1233.927894	679.2000122
1234.474703	680.5999756
1235.021455	678.0
1235.568151	677.4000244
1236.114791	679.2000122
1236.661374	678.4000244
1237.207901	677.2000122
1237.754372	676.4000244
1238.300786	677.7999878
1238.847144	682.0
1239.393445	677.4000244
1239.93969	677.2000122
1240.485879	676.0
1241.032011	676.2000122
1241.578087	681.2000122
1242.124106	677.5999756
1242.67007	679.7999878
1243.215976	679.0
1243.761827	679.7999878
1244.307621	677.7999878
1244.853359	678.7999878
1245.39904	677.5999756
1245.944665	682.4000244
1246.490234	681.4000244
1247.035746	679.0
1247.581203	677.7999878
1248.126602	677.7999878
1248.671946	680.2000122
1249.217233	680.5999756
1249.762464	682.0
1250.307638	681.0
1250.852757	677.4000244
1251.397819	680.5999756
1251.942824	678.2000122
1252.487774	681.2000122
1253.032667	678.5999756
1253.577503	678.5999756
1254.122284	682.2000122
1254.667008	676.5999756
1255.211676	676.0
1255.756288	679.0
1256.300843	679.5999756
1256.845342	679.7999878
1257.389785	682.5999756
1257.934172	681.5999756
1258.478502	683.5999756
1259.022776	684.2000122
1259.566994	690.7999878
1260.111156	691.0
1260.655261	679.4000244
1261.199311	684.4000244
1261.743304	683.4000244
1262.28724	683.7999878
1262.831121	690.5999756
1263.374945	693.5999756
1263.918713	699.7999878
1264.462425	718.7999878
1265.006081	760.4000244
1265.54968	766.4000244
1266.093223	724.0
1266.636711	699.4000244
1267.180141	687.4000244
1267.723516	683.5999756
1268.266835	680.7999878
1268.810097	681.2000122
1269.353303	682.7999878
1269.896453	680.7999878
1270.439547	681.4000244
1270.982584	679.5999756
1271.525566	681.5999756
1272.068491	678.5999756
1272.61136	681.0
1273.154173	678.5999756
1273.69693	680.0
1274.239631	680.2000122
1274.782275	682.2000122
1275.324864	681.5999756
1275.867396	680.0
1276.409872	679.4000244
1276.952292	678.7999878
1277.494656	685.5999756
1278.036964	682.4000244
1278.579215	680.0
1279.121411	683.7999878
1279.66355	682.5999756
1280.205634	683.5999756
1280.747661	682.0
1281.289632	687.5999756
1281.831547	691.7999878
1282.373406	700.5999756
1282.915209	710.5999756
1283.456955	735.2000122
1283.998646	778.2000122
1284.540281	930.0
1285.081859	1515.0
1285.623381	2091.600098
1286.164848	1313.599976
1286.706258	841.0
1287.247612	741.0
1287.788911	711.7999878
1288.330153	699.2000122
1288.871339	693.2000122
1289.412469	691.0
1289.953543	689.5999756
1290.494561	688.0
1291.035523	680.5999756
1291.576428	687.5999756
1292.117278	682.0
1292.658072	684.4000244
1293.19881	684.5999756
1293.739492	678.2000122
1294.280118	680.5999756
1294.820687	679.0
1295.361201	678.7999878
1295.901659	680.5999756
1296.442061	680.4000244
1296.982406	680.0
1297.522696	678.5999756
1298.06293	678.2000122
1298.603108	680.2000122
1299.143229	679.0
1299.683295	681.2000122
1300.223305	681.4000244
1300.763259	678.4000244
1301.303157	680.2000122
1301.842999	678.0
1302.382785	677.2000122
1302.922515	678.5999756
1303.462189	677.4000244
1304.001807	679.7999878
1304.541369	679.2000122
1305.080875	679.5999756
1305.620326	678.5999756
1306.15972	676.7999878
1306.699058	677.7999878
1307.238341	681.2000122
1307.777567	676.5999756
1308.316738	676.0
1308.855853	678.4000244
1309.394912	676.4000244
1309.933915	676.7999878
1310.472862	682.4000244
1311.011753	678.4000244
1311.550588	677.2000122
1312.089367	677.5999756
1312.62809	677.4000244
1313.166758	676.2000122
1313.70537	678.4000244
1314.243925	678.0
1314.782425	675.7999878
1315.320869	680.0
1315.859257	673.7999878
1316.397589	679.2000122
1316.935866	678.5999756
1317.474086	674.7999878
1318.012251	678.0
1318.55036	679.4000244
1319.088413	679.0
1319.62641	679.0
1320.164351	676.4000244
1320.702236	678.0
1321.240066	672.7999878
1321.777839	679.4000244
1322.315557	676.5999756
1322.853219	674.5999756
1323.390826	675.0
1323.928376	681.7999878
1324.465871	677.5999756
1325.003309	679.2000122
1325.540692	677.4000244
1326.07802	679.5999756
1326.615291	676.4000244
1327.152506	674.7999878
1327.689666	681.4000244
1328.22677	677.0
1328.763818	679.7999878
1329.300811	676.2000122
1329.837747	677.2000122
1330.374628	677.4000244
1330.911453	677.2000122
1331.448222	679.2000122
1331.984936	679.7999878
1332.521594	678.7999878
1333.058196	674.2000122
1333.594742	677.7999878
1334.131232	677.5999756
1334.667667	679.2000122
1335.204046	677.2000122
1335.740369	676.0
1336.276637	678.0
1336.812848	676.0
1337.349004	677.7999878
1337.885105	677.2000122
1338.421149	675.2000122
1338.957138	678.4000244
1339.493071	677.0
1340.028949	679.7999878
1340.56477	677.4000244
1341.100536	675.7999878
1341.636246	678.5999756
1342.171901	677.4000244
1342.7075	678.2000122
1343.243043	680.4000244
1343.77853	680.2000122
1344.313962	680.0
1344.849338	677.5999756
1345.384659	676.2000122
1345.919923	677.5999756
1346.455133	679.4000244
1346.990286	680.0
1347.525384	675.7999878
1348.060426	677.5999756
1348.595412	677.5999756
1349.130343	678.4000244
1349.665218	676.4000244
1350.200037	676.5999756
1350.734801	677.5999756
1351.269509	678.4000244
1351.804162	678.5999756
1352.338758	680.0
1352.8733	678.7999878
1353.407785	678.5999756
1353.942215	677.0
1354.476589	678.4000244
1355.010908	676.2000122
1355.545171	678.4000244
1356.079379	678.0
1356.61353	679.4000244
1357.147627	676.5999756
1357.681667	678.7999878
1358.215652	678.7999878
1358.749582	678.5999756
1359.283456	677.4000244
1359.817274	678.7999878
1360.351037	676.7999878
1360.884744	681.7999878
1361.418395	674.0
1361.951991	680.7999878
1362.485531	684.4000244
1363.019016	677.7999878
1363.552445	676.2000122
1364.085819	677.4000244
1364.619137	676.5999756
1365.1524	681.0
1365.685607	682.4000244
1366.218758	686.4000244
1366.751854	684.5999756
1367.284894	681.5999756
1367.817879	677.7999878
1368.350808	680.7999878
1368.883682	679.7999878
1369.4165	679.7999878
1369.949263	691.5999756
1370.48197	720.5999756
1371.014622	695.7999878
1371.547218	679.5999756
1372.079758	678.7999878
1372.612244	678.4000244
1373.144673	681.7999878
1373.677047	680.7999878
1374.209366	679.0
1374.741629	680.7999878
1375.273836	681.0
1375.805989	683.5999756
1376.338085	686.5999756
1376.870126	679.7999878
1377.402112	686.0
1377.934042	681.5999756
1378.465917	682.0
1378.997736	680.5999756
1379.5295	679.0
1380.061208	680.0
1380.592861	683.4000244
1381.124459	682.5999756
1381.656	683.0
1382.187487	680.7999878
1382.718918	687.0
1383.250294	688.2000122
1383.781614	685.5999756
1384.312879	687.2000122
1384.844088	693.4000244
1385.375242	698.4000244
1385.90634	711.2000122
1386.437383	725.4000244
1386.968371	746.7999878
1387.499303	826.4000244
1388.03018	1170.400024
1388.561001	2628.0
1389.091767	2795.199951
1389.622478	1193.599976
1390.153133	810.5999756
1390.683733	736.0
1391.214277	711.5999756
1391.744766	704.2000122
1392.2752	700.5999756
1392.805578	691.4000244
1393.335901	686.5999756
1393.866168	689.4000244
1394.396381	681.2000122
1394.926537	686.4000244
1395.456639	681.4000244
1395.986685	681.2000122
1396.516675	684.4000244
1397.046611	681.0
1397.576491	677.7999878
1398.106315	680.2000122
1398.636084	680.2000122
1399.165798	677.0
1399.695457	679.5999756
1400.22506	678.5999756
1400.754608	681.4000244
1401.284101	679.2000122
1401.813538	680.2000122
1402.34292	680.4000244
1402.872247	680.7999878
1403.401518	680.5999756
1403.930734	683.0
1404.459895	683.4000244
1404.989	683.5999756
1405.51805	683.2000122
1406.047045	686.0
1406.575984	683.5999756
1407.104869	684.4000244
1407.633697	685.0
1408.162471	692.0
1408.691189	700.2000122
1409.219852	726.4000244
1409.74846	792.4000244
1410.277013	857.2000122
1410.80551	769.4000244
1411.333952	709.4000244
1411.862339	690.0
1412.39067	687.5999756
1412.918946	683.5999756
1413.447167	678.2000122
1413.975333	680.0
1414.503444	681.7999878
1415.031499	677.2000122
1415.559499	688.4000244
1416.087444	680.4000244
1416.615333	677.5999756
1417.143167	678.4000244
1417.670947	676.5999756
1418.19867	680.5999756
1418.726339	675.2000122
1419.253952	677.5999756
1419.781511	678.5999756
1420.309014	678.4000244
1420.836461	677.2000122
1421.363854	675.2000122
1421.891191	680.0
1422.418474	677.7999878
1422.945701	679.4000244
1423.472872	677.2000122
1423.999989	677.2000122
1424.52705	676.0
1425.054057	678.7999878
1425.581008	679.5999756
1426.107904	680.2000122
1426.634745	681.2000122
1427.16153	681.4000244
1427.688261	680.0
1428.214936	677.4000244
1428.741556	677.7999878
1429.268121	680.2000122
1429.794631	679.0
1430.321085	676.5999756
1430.847485	677.4000244
1431.373829	678.0
1431.900118	675.7999878
1432.426353	675.5999756
1432.952532	676.7999878
1433.478655	676.7999878
1434.004724	675.5999756
1434.530738	674.4000244
1435.056696	674.4000244
1435.5826	673.0
1436.108448	673.0
1436.634241	678.2000122
1437.159979	674.7999878
1437.685662	676.4000244
1438.21129	672.5999756
1438.736863	674.4000244
1439.262381	674.2000122
1439.787843	672.7999878
1440.313251	673.0
1440.838603	675.7999878
1441.3639	675.0
1441.889143	675.0
1442.41433	676.2000122
1442.939462	674.0
1443.464539	675.4000244
1443.989561	672.7999878
1444.514528	673.4000244
1445.03944	671.2000122
1445.564297	672.0
1446.089099	671.4000244
1446.613846	670.2000122
1447.138537	676.2000122
1447.663174	675.0
1448.187756	677.0
1448.712282	674.7999878
1449.236754	672.7999878
1449.761171	676.2000122
1450.285532	674.2000122
1450.809839	673.7999878
1451.33409	672.4000244
1451.858287	673.2000122
1452.382428	671.2000122
1452.906515	673.5999756
1453.430546	672.2000122
1453.954523	673.0
1454.478444	673.7999878
1455.002311	670.2000122
1455.526123	672.4000244
1456.049879	671.0
1456.573581	672.7999878
1457.097227	671.7999878
1457.620819	670.0
1458.144356	674.7999878
1458.667837	669.4000244
1459.191264	672.5999756
1459.714636	673.4000244
1460.237952	672.2000122
1460.761214	672.2000122
1461.284421	672.5999756
1461.807573	674.0
1462.33067	669.7999878
1462.853712	673.0
1463.376699	675.4000244
1463.899632	674.5999756
1464.422509	674.0
1464.945331	671.7999878
1465.468099	672.4000244
1465.990811	672.0
1466.513469	670.5999756
1467.036071	673.2000122
1467.558619	673.4000244
1468.081112	671.4000244
1468.60355	675.2000122
1469.125933	672.5999756
1469.648261	674.2000122
1470.170534	675.2000122
1470.692752	671.4000244
1471.214916	674.5999756
1471.737024	672.4000244
1472.259078	671.5999756
1472.781077	671.7999878
1473.303021	672.4000244
1473.82491	674.0
1474.346744	675.7999878
1474.868523	670.7999878
1475.390248	673.4000244
1475.911917	670.5999756
1476.433532	670.2000122
1476.955092	671.2000122
1477.476597	671.2000122
1477.998047	669.5999756
1478.519442	672.2000122
1479.040783	673.0
1479.562068	669.5999756
1480.083299	670.2000122
1480.604475	671.5999756
1481.125596	672.0
1481.646663	670.7999878
1482.167674	672.4000244
1482.688631	674.0
1483.209533	670.2000122
1483.73038	671.0
1484.251172	672.2000122
1484.771909	674.4000244
1485.292592	672.2000122
1485.81322	671.5999756
1486.333793	672.4000244
1486.854311	668.7999878
1487.374775	674.2000122
1487.895183	670.0
1488.415537	669.5999756
1488.935836	675.0
1489.456081	673.2000122
1489.97627	671.4000244
1490.496405	671.7999878
1491.016485	670.0
1491.536511	670.7999878
1492.056481	672.7999878
1492.576397	672.2000122
1493.096258	670.7999878
1493.616064	670.4000244
1494.135816	674.4000244
1494.655513	670.5999756
1495.175155	671.0
1495.694742	671.5999756
1496.214274	671.7999878
1496.733752	671.7999878
1497.253175	673.5999756
1497.772544	671.7999878
1498.291858	670.0
1498.811116	669.5999756
1499.330321	673.0
1499.84947	676.7999878
1500.368565	673.7999878
1500.887605	673.2000122
1501.406591	671.0
1501.925521	672.7999878
1502.444397	665.5999756
1502.963219	671.4000244
1503.481985	673.0
1504.000697	668.2000122
1504.519355	670.7999878
1505.037957	671.4000244
1505.556505	670.5999756
1506.074999	669.2000122
1506.593437	672.7999878
1507.111821	671.4000244
1507.63015	668.4000244
1508.148425	671.2000122
1508.666645	671.5999756
1509.18481	674.2000122
1509.702921	670.4000244
1510.220977	670.2000122
1510.738979	678.2000122
1511.256925	670.0
1511.774817	670.2000122
1512.292655	673.0
1512.810438	670.4000244
1513.328166	670.5999756
1513.84584	669.4000244
1514.363459	672.7999878
1514.881023	671.2000122
1515.398533	671.0
1515.915988	669.4000244
1516.433389	670.5999756
1516.950734	670.4000244
1517.468026	673.2000122
1517.985263	672.4000244
1518.502445	670.4000244
1519.019572	672.2000122
1519.536645	671.2000122
1520.053664	673.0
1520.570628	671.2000122
1521.087537	670.4000244
1521.604392	670.5999756
1522.121192	670.4000244
1522.637937	671.0
1523.154628	671.7999878
1523.671265	669.7999878
1524.187847	672.2000122
1524.704374	667.5999756
1525.220847	669.4000244
1525.737265	669.0
1526.253629	671.0
1526.769938	671.0
1527.286192	670.4000244
1527.802392	670.5999756
1528.318538	670.5999756
1528.834629	671.0
1529.350666	672.7999878
1529.866648	673.4000244
1530.382575	670.2000122
1530.898448	670.2000122
1531.414266	671.4000244
1531.93003	668.5999756
1532.44574	670.7999878
1532.961395	673.5999756
1533.476995	672.7999878
1533.992541	670.7999878
1534.508033	670.2000122
1535.02347	669.0
1535.538852	671.7999878
1536.05418	668.2000122
1536.569454	669.4000244
1537.084673	671.4000244
1537.599837	670.0
1538.114947	670.2000122
1538.630003	672.5999756
1539.145004	671.0
1539.659951	671.4000244
1540.174843	672.5999756
1540.689681	668.7999878
1541.204465	668.4000244
1541.719194	669.7999878
1542.233868	672.2000122
1542.748488	673.0
1543.263054	672.5999756
1543.777565	671.2000122
1544.292022	670.7999878
1544.806424	669.7999878
1545.320772	670.2000122
1545.835066	671.5999756
1546.349305	669.4000244
1546.863489	670.0
1547.37762	666.5999756
1547.891696	669.4000244
1548.405717	673.2000122
1548.919684	671.4000244
1549.433597	671.0
1549.947455	675.0
1550.461259	672.7999878
1550.975009	669.0
1551.488704	669.4000244
1552.002345	671.5999756
1552.515931	669.5999756
1553.029463	667.5999756
1553.542941	670.7999878
1554.056364	672.2000122
1554.569733	669.2000122
1555.083048	668.5999756
1555.596308	671.2000122
1556.109514	671.0
1556.622665	668.7999878
1557.135762	670.0
1557.648805	673.2000122
1558.161794	671.0
1558.674728	671.2000122
1559.187608	669.7999878
1559.700433	671.2000122
1560.213205	673.2000122
1560.725921	667.7999878
1561.238584	670.2000122
1561.751192	670.0
1562.263746	669.0
1562.776246	670.7999878
1563.288691	671.0
1563.801082	670.4000244
1564.313419	669.7999878
1564.825701	670.4000244
1565.337929	671.2000122
1565.850103	670.5999756
1566.362223	669.4000244
1566.874288	671.7999878
1567.386299	671.4000244
1567.898256	667.2000122
1568.410158	670.4000244
1568.922007	670.7999878
1569.4338	670.4000244
1569.94554	670.2000122
1570.457226	671.7999878
1570.968857	671.5999756
1571.480434	668.0
1571.991956	672.4000244
1572.503425	670.7999878
1573.014839	672.0
1573.526199	670.5999756
1574.037505	672.4000244
1574.548756	670.7999878
1575.059953	669.4000244
1575.571096	669.7999878
1576.082185	673.2000122
1576.59322	669.7999878
1577.1042	671.2000122
1577.615126	668.7999878
1578.125998	668.5999756
1578.636816	672.2000122
1579.14758	670.7999878
1579.658289	670.5999756
1580.168944	671.7999878
1580.679545	668.7999878
1581.190092	670.4000244
1581.700585	670.5999756
1582.211023	671.0
1582.721407	668.5999756
1583.231737	670.7999878
1583.742013	670.2000122
1584.252235	670.2000122
1584.762403	670.7999878
1585.272516	670.7999878
1585.782575	670.0
1586.292581	669.7999878
1586.802532	672.5999756
1587.312428	670.4000244
1587.822271	671.0
1588.33206	670.5999756
1588.841794	668.7999878
1589.351474	667.4000244
1589.8611	669.7999878
1590.370672	666.5999756
1590.88019	671.0
1591.389654	669.7999878
1591.899064	668.0
1592.408419	671.2000122
