1042.452273	682.0
1043.018714	675.5999756
1043.585098	677.4000244
1044.151424	676.7999878
1044.717692	677.4000244
1045.283903	677.0
1045.850056	676.0
1046.416151	672.7999878
1046.982188	672.4000244
1047.548167	675.5999756
1048.114089	674.7999878
1048.679953	673.0
1049.24576	674.4000244
1049.811509	670.7999878
1050.3772	674.5999756
1050.942833	673.7999878
1051.508408	670.0
1052.073926	673.0
1052.639387	669.7999878
1053.204789	671.4000244
1053.770134	668.5999756
1054.335421	671.4000244
1054.900651	671.2000122
1055.465823	671.7999878
1056.030937	673.2000122
1056.595993	674.4000244
1057.160992	672.4000244
1057.725934	668.2000122
1058.290817	670.2000122
1058.855643	670.0
1059.420411	670.4000244
1059.985122	667.7999878
1060.549775	668.7999878
1061.114371	669.2000122
1061.678908	669.7999878
1062.243389	668.5999756
1062.807811	668.2000122
1063.372176	668.2000122
1063.936483	669.4000244
1064.500733	668.4000244
1065.064925	667.5999756
1065.62906	668.5999756
1066.193137	669.0
1066.757156	667.0
1067.321118	670.5999756
1067.885022	665.5999756
1068.448869	670.2000122
1069.012658	667.7999878
1069.57639	668.2000122
1070.140063	674.5999756
1070.70368	667.2000122
1071.267239	670.2000122
1071.83074	669.0
1072.394184	669.7999878
1072.95757	668.7999878
1073.520899	671.4000244
1074.08417	670.2000122
1074.647383	667.2000122
1075.21054	669.7999878
1075.773638	671.4000244
1076.336679	668.7999878
1076.899663	668.7999878
1077.462589	669.4000244
1078.025457	669.2000122
1078.588268	668.7999878
1079.151022	666.2000122
1079.713718	671.4000244
1080.276356	666.2000122
1080.838937	668.5999756
1081.401461	671.7999878
1081.963927	670.2000122
1082.526336	669.5999756
1083.088687	668.4000244
1083.650981	668.5999756
1084.213217	667.0
1084.775396	669.5999756
1085.337517	667.5999756
1085.899581	666.4000244
1086.461587	665.4000244
1087.023536	668.7999878
1087.585428	668.2000122
1088.147262	669.4000244
1088.709039	668.5999756
1089.270758	668.4000244
1089.83242	668.2000122
1090.394024	665.7999878
1090.955571	669.0
1091.517061	668.4000244
1092.078493	667.4000244
1092.639868	666.7999878
1093.201185	668.5999756
1093.762445	667.4000244
1094.323648	667.7999878
1094.884793	664.7999878
1095.445881	668.4000244
1096.006911	669.0
1096.567884	665.5999756
1097.1288	674.4000244
1097.689659	667.5999756
1098.25046	670.2000122
1098.811203	666.0
1099.37189	669.0
1099.932518	667.2000122
1100.49309	666.5999756
1101.053604	663.4000244
1101.614061	665.2000122
1102.174461	666.4000244
1102.734803	667.5999756
1103.295088	667.5999756
1103.855316	667.2000122
1104.415486	665.4000244
1104.975599	668.7999878
1105.535655	668.2000122
1106.095653	667.0
1106.655594	667.2000122
1107.215478	668.2000122
1107.775305	667.2000122
1108.335074	668.4000244
1108.894786	667.0
1109.45444	667.4000244
1110.014038	671.2000122
1110.573578	663.5999756
1111.133061	667.4000244
1111.692486	666.2000122
1112.251854	668.7999878
1112.811165	667.4000244
1113.370419	669.0
1113.929616	670.5999756
1114.488755	666.7999878
1115.047837	667.7999878
1115.606862	670.4000244
1116.16583	668.5999756
1116.72474	666.7999878
1117.283593	668.5999756
1117.842389	666.2000122
1118.401128	666.7999878
1118.959809	668.7999878
1119.518433	665.7999878
1120.077	668.0
1120.63551	665.2000122
1121.193963	668.0
1121.752358	668.2000122
1122.310697	667.7999878
1122.868978	670.0
1123.427202	667.0
1123.985368	668.0
1124.543478	669.5999756
1125.10153	668.5999756
1125.659526	667.4000244
1126.217464	666.4000244
1126.775345	670.4000244
1127.333168	669.4000244
1127.890935	671.2000122
1128.448644	668.7999878
1129.006297	668.5999756
1129.563892	667.2000122
1130.12143	669.0
1130.678911	669.5999756
1131.236335	668.2000122
1131.793701	667.4000244
1132.351011	666.5999756
1132.908263	665.4000244
1133.465458	667.2000122
1134.022597	665.7999878
1134.579678	667.7999878
1135.136702	666.5999756
1135.693669	668.5999756
1136.250578	668.4000244
1136.807431	667.0
1137.364227	666.4000244
1137.920965	669.2000122
1138.477647	667.5999756
1139.034271	665.2000122
1139.590839	666.5999756
1140.147349	666.2000122
1140.703802	667.2000122
1141.260198	668.0
1141.816537	667.4000244
1142.37282	664.4000244
1142.929045	666.2000122
1143.485213	666.4000244
1144.041323	667.5999756
1144.597377	666.2000122
1145.153374	665.5999756
1145.709314	668.7999878
1146.265197	668.4000244
1146.821023	668.4000244
1147.376792	669.5999756
1147.932503	670.7999878
1148.488158	663.4000244
1149.043756	669.2000122
1149.599297	669.0
1150.154781	667.5999756
1150.710207	673.0
1151.265577	673.0
1151.82089	667.5999756
1152.376146	669.4000244
1152.931345	667.4000244
1153.486487	669.0
1154.041572	666.7999878
1154.5966	667.2000122
1155.151571	664.7999878
1155.706485	667.5999756
1156.261342	668.7999878
1156.816142	666.0
1157.370885	669.2000122
1157.925572	668.5999756
1158.480201	667.5999756
1159.034774	668.5999756
1159.589289	669.2000122
1160.143748	668.5999756
1160.698149	669.2000122
1161.252494	667.4000244
1161.806782	665.2000122
1162.361013	667.0
1162.915187	667.2000122
1163.469304	667.2000122
1164.023364	667.0
1164.577368	666.4000244
1165.131314	666.5999756
1165.685204	664.7999878
1166.239036	667.2000122
1166.792812	667.4000244
1167.346531	667.4000244
1167.900193	668.0
1168.453798	667.7999878
1169.007347	668.4000244
1169.560838	670.0
1170.114273	668.0
1170.66765	669.4000244
1171.220971	666.5999756
1171.774235	667.5999756
1172.327443	663.2000122
1172.880593	666.0
1173.433687	667.2000122
1173.986723	667.0
1174.539703	667.4000244
1175.092626	667.0
1175.645493	667.2000122
1176.198302	668.0
1176.751055	664.4000244
1177.303751	666.7999878
1177.85639	667.4000244
1178.408972	664.5999756
1178.961498	668.0
1179.513966	666.0
1180.066378	668.7999878
1180.618733	667.2000122
1181.171032	665.2000122
1181.723273	666.2000122
1182.275458	666.2000122
1182.827586	667.7999878
1183.379657	663.7999878
1183.931672	666.2000122
1184.48363	664.5999756
1185.035531	666.0
1185.587375	667.2000122
1186.139162	667.0
1186.690893	666.4000244
1187.242567	665.7999878
1187.794184	664.2000122
1188.345745	665.2000122
1188.897249	667.7999878
1189.448696	667.4000244
1190.000086	667.2000122
1190.55142	665.5999756
1191.102697	666.5999756
1191.653918	668.2000122
1192.205081	667.2000122
1192.756188	666.2000122
1193.858232	666.0
1194.409169	667.0
1194.960049	666.5999756
1195.510872	668.0
1196.061639	665.4000244
1196.612349	667.0
1197.163003	669.4000244
1197.713599	666.7999878
1198.264139	665.5999756
1198.814623	667.2000122
1199.36505	667.4000244
1199.91542	667.7999878
1200.465734	668.4000244
1201.01599	666.0
1201.566191	668.0
1202.116334	666.2000122
1202.666421	666.7999878
1203.216452	666.4000244
1203.766425	666.7999878
1204.316343	667.7999878
1204.866203	664.5999756
1205.416007	668.0
1205.965754	669.4000244
1206.515445	664.7999878
1207.065079	665.5999756
1207.614657	665.7999878
1208.164177	666.5999756
1208.713642	668.7999878
1209.26305	666.7999878
1209.812401	669.5999756
1210.361695	670.5999756
1210.910933	667.2000122
1211.460115	666.7999878
1212.00924	667.5999756
1212.558308	669.4000244
1213.10732	664.5999756
1213.656275	667.0
1214.205174	666.0
1214.754016	668.5999756
1215.302801	668.7999878
1215.85153	667.0
1216.400203	670.7999878
1216.948819	666.2000122
1217.497378	669.2000122
1218.045881	667.5999756
1218.594327	669.2000122
1219.142717	668.2000122
1219.691051	669.4000244
1220.239327	667.4000244
1220.787548	664.7999878
1221.335712	670.4000244
1221.883819	664.7999878
1222.43187	666.4000244
1222.979864	666.4000244
1223.527802	667.4000244
1224.075683	668.7999878
1224.623508	666.0
1225.171277	669.5999756
1225.718989	668.4000244
1226.266644	667.5999756
1226.814243	671.5999756
1227.361786	668.7999878
1227.909272	669.5999756
1228.456702	666.4000244
1229.004075	667.0
1229.551392	669.0
1230.098652	669.4000244
1230.645856	666.7999878
1231.193003	667.0
1231.740094	669.5999756
1232.287129	667.4000244
1232.834107	669.4000244
1233.381029	668.0
1233.927894	668.0
1234.474703	668.0
1235.021455	668.4000244
1235.568151	668.2000122
1236.114791	667.5999756
1236.661374	668.5999756
1237.207901	668.7999878
1237.754372	668.7999878
1238.300786	666.2000122
1238.847144	669.5999756
1239.393445	667.4000244
1239.93969	668.7999878
1240.485879	666.4000244
1241.032011	667.5999756
1241.578087	669.0
1242.124106	669.2000122
1242.67007	669.0
1243.215976	664.5999756
1243.761827	667.5999756
1244.307621	667.0
1244.853359	666.7999878
1245.39904	670.2000122
1245.944665	670.7999878
1246.490234	668.5999756
1247.035746	667.7999878
1247.581203	668.4000244
1248.126602	669.7999878
1248.671946	670.7999878
1249.217233	668.7999878
1249.762464	667.5999756
1250.307638	670.2000122
1250.852757	669.4000244
1251.397819	669.5999756
1251.942824	667.0
1252.487774	668.7999878
1253.032667	664.4000244
1253.577503	667.0
1254.122284	670.5999756
1254.667008	667.4000244
1255.211676	669.0
1255.756288	666.7999878
1256.300843	668.4000244
1256.845342	670.2000122
1257.389785	670.0
1257.934172	666.5999756
1258.478502	671.5999756
1259.022776	672.0
1259.566994	675.7999878
1260.111156	680.7999878
1260.655261	672.0
1261.199311	668.5999756
1261.743304	672.4000244
1262.28724	669.2000122
1262.831121	676.0
1263.374945	675.0
1263.918713	677.7999878
1264.462425	693.2000122
1265.006081	707.4000244
1265.54968	712.7999878
1266.093223	692.0
1266.636711	678.2000122
1267.180141	673.2000122
1267.723516	669.5999756
1268.266835	673.4000244
1268.810097	670.7999878
1269.353303	670.0
1269.896453	668.5999756
1270.439547	669.0
1270.982584	668.7999878
1271.525566	671.2000122
1272.068491	668.5999756
1272.61136	670.0
1273.154173	667.7999878
1273.69693	667.2000122
1274.239631	669.5999756
1274.782275	670.5999756
1275.324864	670.0
1275.867396	670.0
1276.409872	669.0
1276.952292	670.5999756
1277.494656	671.4000244
1278.036964	668.2000122
1278.579215	670.2000122
1279.121411	671.5999756
1279.66355	672.5999756
1280.205634	672.5999756
1280.747661	670.7999878
1281.289632	672.5999756
1281.831547	674.4000244
1282.373406	680.4000244
1282.915209	683.7999878
1283.456955	697.2000122
1283.998646	724.4000244
1284.540281	814.0
1285.081859	1111.800049
1285.623381	1408.800049
1286.164848	1009.200012
1286.706258	749.5999756
1287.247612	700.2000122
1287.788911	684.7999878
1288.330153	678.7999878
1288.871339	675.5999756
1289.412469	678.4000244
1289.953543	673.0
1290.494561	670.0
1291.035523	670.4000244
1291.576428	669.2000122
1292.117278	669.4000244
1292.658072	666.4000244
1293.19881	669.4000244
1293.739492	667.2000122
1294.280118	671.5999756
1294.820687	668.4000244
1295.361201	668.7999878
1295.901659	669.7999878
1296.442061	669.5999756
1296.982406	668.7999878
1297.522696	669.0
1298.06293	668.2000122
1298.603108	669.4000244
1299.143229	667.4000244
1299.683295	668.4000244
1300.223305	669.4000244
1300.763259	667.4000244
1301.303157	666.7999878
1301.842999	668.2000122
1302.382785	666.0
1302.922515	667.5999756
1303.462189	670.5999756
1304.001807	666.0
1304.541369	670.0
1305.080875	667.0
1305.620326	668.0
1306.15972	668.4000244
1306.699058	667.2000122
1307.238341	666.5999756
1307.777567	666.7999878
1308.316738	671.5999756
1308.855853	667.0
1309.394912	666.7999878
1309.933915	668.2000122
1310.472862	670.2000122
1311.011753	665.5999756
1311.550588	666.5999756
1312.089367	669.0
1312.62809	666.5999756
1313.166758	668.5999756
1313.70537	666.2000122
1314.243925	668.7999878
1314.782425	667.7999878
1315.320869	667.2000122
1315.859257	667.0
1316.397589	666.4000244
1316.935866	668.2000122
1317.474086	670.0
1318.012251	667.7999878
1318.55036	668.0
1319.088413	669.4000244
1319.62641	670.5999756
1320.164351	666.5999756
1320.702236	668.4000244
1321.240066	666.7999878
1321.777839	666.7999878
1322.315557	669.7999878
1322.853219	667.4000244
1323.390826	668.4000244
1323.928376	671.4000244
1324.465871	669.2000122
1325.003309	666.4000244
1325.540692	667.4000244
1326.07802	667.7999878
1326.615291	667.7999878
1327.152506	666.4000244
1327.689666	668.2000122
1328.22677	670.2000122
1328.763818	667.7999878
1329.300811	667.0
1329.837747	666.5999756
1330.374628	667.5999756
1330.911453	668.4000244
1331.448222	669.7999878
1331.984936	667.2000122
1332.521594	667.5999756
1333.058196	666.4000244
1333.594742	665.5999756
1334.131232	667.5999756
1334.667667	667.0
1335.204046	668.2000122
1335.740369	665.7999878
1336.276637	666.7999878
1336.812848	665.7999878
1337.349004	668.0
1337.885105	669.5999756
1338.421149	668.5999756
1338.957138	666.5999756
1339.493071	669.7999878
1340.028949	668.2000122
1340.56477	665.4000244
1341.100536	664.5999756
1341.636246	669.4000244
1342.171901	666.7999878
1342.7075	667.0
1343.243043	670.0
1343.77853	669.2000122
1344.313962	670.2000122
1344.849338	666.0
1345.384659	667.0
1345.919923	667.4000244
1346.455133	668.4000244
1346.990286	664.7999878
1347.525384	668.2000122
1348.060426	668.2000122
1348.595412	667.7999878
1349.130343	669.0
1349.665218	669.4000244
1350.200037	668.4000244
1350.734801	667.2000122
1351.269509	669.5999756
1351.804162	667.5999756
1352.338758	668.5999756
1352.8733	668.5999756
1353.407785	670.4000244
1353.942215	667.7999878
1354.476589	670.2000122
1355.010908	667.7999878
1355.545171	668.4000244
1356.079379	666.4000244
1356.61353	666.5999756
1357.147627	665.5999756
1357.681667	667.7999878
1358.215652	668.5999756
1358.749582	670.7999878
1359.283456	669.5999756
1359.817274	668.0
1360.351037	669.0
1360.884744	666.7999878
1361.418395	670.0
1361.951991	665.0
1362.485531	668.0
1363.019016	668.7999878
1363.552445	668.0
1364.085819	667.0
1364.619137	668.2000122
1365.1524	670.7999878
1365.685607	669.7999878
1366.218758	674.0
1366.751854	670.5999756
1367.284894	669.0
1367.817879	669.5999756
1368.350808	668.2000122
1368.883682	668.4000244
1369.4165	670.2000122
1369.949263	673.4000244
1370.48197	690.0
1371.014622	679.7999878
1371.547218	673.4000244
1372.079758	670.5999756
1372.612244	669.0
1373.144673	667.2000122
1373.677047	669.2000122
1374.209366	668.0
1374.741629	671.7999878
1375.273836	668.5999756
1375.805989	669.0
1376.338085	671.2000122
1376.870126	670.4000244
1377.402112	668.4000244
1377.934042	670.0
1378.465917	667.2000122
1378.997736	667.0
1379.5295	671.4000244
1380.061208	670.5999756
1380.592861	672.0
1381.124459	673.5999756
1381.656	672.2000122
1382.187487	673.5999756
1382.718918	673.4000244
1383.250294	672.4000244
1383.781614	674.0
1384.312879	672.0
1384.844088	678.4000244
1385.375242	681.5999756
1385.90634	683.5999756
1386.437383	690.7999878
1386.968371	704.7999878
1387.499303	746.7999878
1388.03018	927.5999756
1388.561001	1720.0
1389.091767	1787.400024
1389.622478	946.5999756
1390.153133	740.5999756
1390.683733	702.0
1391.214277	688.7999878
1391.744766	681.7999878
1392.2752	677.7999878
1392.805578	673.5999756
1393.335901	673.0
1393.866168	673.4000244
1394.396381	671.4000244
1394.926537	672.2000122
1395.456639	673.0
1395.986685	669.0
1396.516675	667.7999878
1397.046611	668.7999878
1397.576491	670.5999756
1398.106315	671.2000122
1398.636084	669.2000122
1399.165798	667.2000122
1399.695457	668.2000122
1400.22506	671.0
1400.754608	668.0
1401.284101	671.5999756
1401.813538	669.2000122
1402.34292	667.0
1402.872247	669.0
1403.401518	668.0
1403.930734	668.2000122
1404.459895	668.4000244
1404.989	669.5999756
1405.51805	669.7999878
1406.047045	667.5999756
1406.575984	670.0
1407.104869	669.0
1407.633697	674.4000244
1408.162471	674.2000122
1408.691189	677.2000122
1409.219852	693.4000244
1409.74846	728.7999878
1410.277013	754.5999756
1410.80551	713.2000122
1411.333952	686.0
1411.862339	672.7999878
1412.39067	669.4000244
1412.918946	668.4000244
1413.447167	670.4000244
1413.975333	667.2000122
1414.503444	666.5999756
1415.031499	668.4000244
1415.559499	676.4000244
1416.087444	668.4000244
1416.615333	667.7999878
1417.143167	669.7999878
1417.670947	670.0
1418.19867	667.5999756
1418.726339	669.4000244
1419.253952	669.0
1419.781511	667.5999756
1420.309014	669.5999756
1420.836461	665.7999878
1421.363854	668.7999878
1421.891191	668.2000122
1422.418474	667.4000244
1422.945701	669.4000244
1423.472872	666.2000122
1423.999989	667.4000244
1424.52705	668.5999756
1425.054057	668.0
1425.581008	667.4000244
1426.107904	669.2000122
1426.634745	670.4000244
1427.16153	671.4000244
1427.688261	665.5999756
1428.214936	668.0
1428.741556	667.4000244
1429.268121	667.4000244
1429.794631	668.0
1430.321085	667.7999878
1430.847485	667.0
1431.373829	666.4000244
1431.900118	666.5999756
1432.426353	667.7999878
1432.952532	667.7999878
1433.478655	668.4000244
1434.004724	667.2000122
1434.530738	667.2000122
1435.056696	663.7999878
1435.5826	666.4000244
1436.108448	667.2000122
1436.634241	662.2000122
1437.159979	666.7999878
1437.685662	665.7999878
1438.21129	666.2000122
1438.736863	664.7999878
1439.262381	667.7999878
1439.787843	666.2000122
1440.313251	665.0
1440.838603	663.7999878
1441.3639	667.5999756
1441.889143	666.2000122
1442.41433	666.5999756
1442.939462	666.0
1443.464539	664.4000244
1443.989561	667.4000244
1444.514528	665.5999756
1445.03944	664.4000244
1445.564297	664.4000244
1446.089099	665.7999878
1446.613846	665.2000122
1447.138537	666.4000244
1447.663174	664.2000122
1448.187756	666.0
1448.712282	666.0
1449.236754	665.4000244
1449.761171	663.7999878
1450.285532	665.7999878
1450.809839	666.4000244
1451.33409	666.0
1451.858287	667.7999878
1452.382428	665.4000244
1452.906515	666.0
1453.430546	663.4000244
1453.954523	665.5999756
1454.478444	663.7999878
1455.002311	664.0
1455.526123	664.0
1456.049879	662.7999878
1456.573581	663.5999756
1457.097227	667.0
1457.620819	665.4000244
1458.144356	666.0
1458.667837	665.5999756
1459.191264	664.2000122
1459.714636	664.0
1460.237952	662.2000122
1460.761214	663.7999878
1461.284421	668.4000244
1461.807573	665.2000122
1462.33067	664.7999878
1462.853712	666.0
1463.376699	666.5999756
1463.899632	665.0
1464.422509	666.2000122
1464.945331	663.5999756
1465.468099	665.0
1465.990811	666.0
1466.513469	662.4000244
1467.036071	664.4000244
1467.558619	666.2000122
1468.081112	666.0
1468.60355	663.4000244
1469.125933	666.0
1469.648261	665.4000244
1470.170534	666.7999878
1470.692752	662.7999878
1471.214916	665.4000244
1471.737024	664.4000244
1472.259078	666.4000244
1472.781077	663.7999878
1473.303021	663.5999756
1473.82491	663.7999878
1474.346744	666.7999878
1474.868523	665.7999878
1475.390248	666.2000122
1475.911917	664.5999756
1476.433532	664.5999756
1476.955092	664.7999878
1477.476597	664.4000244
1477.998047	665.4000244
1478.519442	664.5999756
1479.040783	663.4000244
1479.562068	665.7999878
1480.083299	663.7999878
1480.604475	663.0
1481.125596	666.0
1481.646663	664.5999756
1482.167674	666.4000244
1482.688631	664.2000122
1483.209533	664.4000244
1483.73038	666.4000244
1484.251172	664.5999756
1484.771909	665.5999756
1485.292592	663.5999756
1485.81322	663.2000122
1486.333793	665.2000122
1486.854311	665.2000122
1487.374775	661.0
1487.895183	665.7999878
1488.415537	664.2000122
1488.935836	668.4000244
1489.456081	665.5999756
1489.97627	665.0
1490.496405	662.2000122
1491.016485	665.4000244
1491.536511	665.7999878
1492.056481	664.5999756
1492.576397	666.4000244
1493.096258	666.5999756
1493.616064	663.0
1494.135816	665.0
1494.655513	665.7999878
1495.175155	663.7999878
1495.694742	663.4000244
1496.214274	666.0
1496.733752	666.7999878
1497.253175	666.4000244
1497.772544	664.2000122
1498.291858	664.2000122
1498.811116	662.7999878
1499.330321	664.7999878
1499.84947	670.0
1500.368565	667.4000244
1500.887605	662.4000244
1501.406591	665.7999878
1501.925521	664.7999878
1502.444397	663.7999878
1502.963219	663.4000244
1503.481985	665.2000122
1504.000697	667.2000122
1504.519355	662.5999756
1505.037957	665.2000122
1505.556505	664.2000122
1506.074999	665.7999878
1506.593437	663.5999756
1507.111821	663.5999756
1507.63015	663.2000122
1508.148425	666.4000244
1508.666645	664.7999878
1509.18481	662.4000244
1509.702921	663.0
1510.220977	666.4000244
1510.738979	672.7999878
1511.256925	663.7999878
1511.774817	662.0
1512.292655	663.5999756
1512.810438	664.4000244
1513.328166	663.0
1513.84584	666.5999756
1514.363459	660.0
1514.881023	664.0
1515.398533	662.0
1515.915988	663.0
1516.433389	662.5999756
1516.950734	664.5999756
1517.468026	663.7999878
1517.985263	662.0
1518.502445	665.0
1519.019572	663.4000244
1519.536645	663.4000244
1520.053664	664.2000122
1520.570628	664.7999878
1521.087537	663.0
1521.604392	664.4000244
1522.121192	662.5999756
1522.637937	664.7999878
1523.154628	663.4000244
1523.671265	665.7999878
1524.187847	666.4000244
1524.704374	665.4000244
1525.220847	665.5999756
1525.737265	663.7999878
1526.253629	667.0
1526.769938	666.5999756
1527.286192	662.2000122
1527.802392	662.7999878
1528.318538	664.7999878
1528.834629	662.7999878
1529.350666	662.2000122
1529.866648	664.0
1530.382575	663.0
1530.898448	663.0
1531.414266	663.2000122
1531.93003	663.7999878
1532.44574	663.5999756
1532.961395	664.2000122
1533.476995	666.0
1533.992541	663.5999756
1534.508033	663.5999756
1535.02347	664.4000244
1535.538852	666.4000244
1536.05418	662.2000122
1536.569454	662.5999756
1537.084673	664.2000122
1537.599837	665.4000244
1538.114947	662.5999756
1538.630003	664.4000244
1539.145004	664.5999756
1539.659951	664.5999756
1540.174843	665.0
1540.689681	663.5999756
1541.204465	665.7999878
1541.719194	662.2000122
1542.233868	663.5999756
1542.748488	664.5999756
1543.263054	663.5999756
1543.777565	663.7999878
1544.292022	665.2000122
1544.806424	665.0
1545.320772	665.5999756
1545.835066	664.2000122
1546.349305	665.4000244
1546.863489	663.2000122
1547.37762	665.5999756
1547.891696	664.0
1548.405717	666.5999756
1548.919684	663.4000244
1549.433597	664.4000244
1549.947455	663.2000122
1550.461259	665.0
1550.975009	662.7999878
1551.488704	660.7999878
1552.002345	663.4000244
1552.515931	664.0
1553.029463	660.7999878
1553.542941	663.4000244
1554.056364	666.2000122
1554.569733	663.2000122
1555.083048	661.5999756
1555.596308	665.5999756
1556.109514	662.2000122
1556.622665	661.5999756
1557.135762	661.2000122
1557.648805	663.4000244
1558.161794	663.0
1558.674728	663.5999756
1559.187608	664.5999756
1559.700433	662.7999878
1560.213205	664.7999878
1560.725921	664.4000244
1561.238584	663.2000122
1561.751192	662.4000244
1562.263746	664.5999756
1562.776246	664.2000122
1563.288691	663.2000122
1563.801082	665.7999878
1564.313419	663.2000122
1564.825701	664.5999756
1565.337929	663.2000122
1565.850103	662.5999756
1566.362223	665.5999756
1566.874288	663.5999756
1567.386299	664.7999878
1567.898256	664.2000122
1568.410158	663.5999756
1568.922007	666.2000122
1569.4338	662.4000244
1569.94554	662.7999878
1570.457226	664.2000122
1570.968857	664.5999756
1571.480434	665.0
1571.991956	665.7999878
1572.503425	664.4000244
1573.014839	664.0
1573.526199	663.2000122
1574.037505	664.0
1574.548756	664.5999756
1575.059953	662.7999878
1575.571096	662.5999756
1576.082185	663.4000244
1576.59322	664.5999756
1577.1042	664.4000244
1577.615126	663.4000244
1578.125998	665.2000122
1578.636816	662.7999878
1579.14758	662.2000122
1579.658289	666.0
1580.168944	662.5999756
1580.679545	663.4000244
1581.190092	661.7999878
1581.700585	665.0
1582.211023	664.2000122
1582.721407	665.4000244
1583.231737	662.0
1583.742013	662.2000122
1584.252235	660.2000122
1584.762403	662.7999878
1585.272516	664.2000122
1585.782575	663.2000122
1586.292581	662.7999878
1586.802532	660.7999878
1587.312428	665.2000122
1587.822271	662.0
1588.33206	663.0
1588.841794	663.7999878
1589.351474	661.7999878
1589.8611	663.4000244
1590.370672	663.0
1590.88019	662.5999756
1591.389654	663.7999878
1591.899064	664.0
1592.408419	665.0
