1042.452273	765.0
1043.018714	767.2000122
1043.585098	767.0
1044.151424	766.5999756
1044.717692	760.4000244
1045.283903	759.4000244
1045.850056	760.5999756
1046.416151	763.4000244
1046.982188	761.4000244
1047.548167	763.5999756
1048.114089	759.7999878
1048.679953	765.0
1049.24576	762.7999878
1049.811509	761.2000122
1050.3772	760.2000122
1050.942833	758.7999878
1051.508408	751.5999756
1052.073926	756.7999878
1052.639387	758.5999756
1053.204789	760.0
1053.770134	754.7999878
1054.335421	761.7999878
1054.900651	759.2000122
1055.465823	756.0
1056.030937	754.7999878
1056.595993	757.5999756
1057.160992	753.4000244
1057.725934	756.0
1058.290817	755.5999756
1058.855643	752.0
1059.420411	753.5999756
1059.985122	757.7999878
1060.549775	749.5999756
1061.114371	755.0
1061.678908	751.2000122
1062.243389	751.7999878
1062.807811	752.7999878
1063.372176	750.7999878
1063.936483	754.4000244
1064.500733	748.2000122
1065.064925	751.5999756
1065.62906	748.2000122
1066.193137	753.5999756
1066.757156	755.4000244
1067.321118	751.4000244
1067.885022	745.0
1068.448869	742.0
1069.012658	747.0
1069.57639	747.0
1070.140063	753.7999878
1070.70368	749.4000244
1071.267239	751.4000244
1071.83074	743.5999756
1072.394184	745.2000122
1072.95757	746.7999878
1073.520899	746.5999756
1074.08417	751.7999878
1074.647383	742.5999756
1075.21054	749.4000244
1075.773638	746.7999878
1076.336679	750.5999756
1076.899663	745.5999756
1077.462589	747.4000244
1078.025457	744.7999878
1078.588268	743.4000244
1079.151022	746.2000122
1079.713718	744.0
1080.276356	739.5999756
1080.838937	747.2000122
1081.401461	739.7999878
1081.963927	742.4000244
1082.526336	738.7999878
1083.088687	742.5999756
1083.650981	743.2000122
1084.213217	739.2000122
1084.775396	746.2000122
1085.337517	741.4000244
1085.899581	743.7999878
1086.461587	738.7999878
1087.023536	741.7999878
1087.585428	738.7999878
1088.147262	738.7999878
1088.709039	739.5999756
1089.270758	740.5999756
1089.83242	738.7999878
1090.394024	742.0
1090.955571	742.0
1091.517061	742.7999878
1092.078493	742.7999878
1092.639868	737.4000244
1093.201185	736.5999756
1093.762445	739.5999756
1094.323648	736.7999878
1094.884793	739.5999756
1095.445881	737.7999878
1096.006911	740.5999756
1096.567884	731.4000244
1097.1288	744.5999756
1097.689659	734.0
1098.25046	736.7999878
1098.811203	735.7999878
1099.37189	735.5999756
1099.932518	740.7999878
1100.49309	731.5999756
1101.053604	739.4000244
1101.614061	734.4000244
1102.174461	732.7999878
1102.734803	737.5999756
1103.295088	732.0
1103.855316	732.2000122
1104.415486	735.2000122
1104.975599	731.4000244
1105.535655	734.7999878
1106.095653	728.4000244
1106.655594	734.7999878
1107.215478	731.7999878
1107.775305	732.5999756
1108.335074	728.0
1108.894786	730.7999878
1109.45444	729.7999878
1110.014038	733.0
1110.573578	729.2000122
1111.133061	734.5999756
1111.692486	729.2000122
1112.251854	728.7999878
1112.811165	733.4000244
1113.370419	730.4000244
1113.929616	733.4000244
1114.488755	727.2000122
1115.047837	725.2000122
1115.606862	732.2000122
1116.16583	736.5999756
1116.72474	729.2000122
1117.283593	732.5999756
1117.842389	727.4000244
1118.401128	734.0
1118.959809	731.5999756
1119.518433	726.5999756
1120.077	730.0
1120.63551	731.7999878
1121.193963	729.4000244
1121.752358	723.4000244
1122.310697	729.7999878
1122.868978	724.0
1123.427202	726.2000122
1123.985368	724.2000122
1124.543478	726.2000122
1125.10153	728.0
1125.659526	726.5999756
1126.217464	729.2000122
1126.775345	727.7999878
1127.333168	732.2000122
1127.890935	725.2000122
1128.448644	731.0
1129.006297	727.0
1129.563892	723.2000122
1130.12143	730.5999756
1130.678911	730.5999756
1131.236335	727.4000244
1131.793701	722.0
1132.351011	724.7999878
1132.908263	724.7999878
1133.465458	726.7999878
1134.022597	728.2000122
1134.579678	725.5999756
1135.136702	729.4000244
1135.693669	729.0
1136.250578	726.2000122
1136.807431	729.4000244
1137.364227	728.4000244
1137.920965	725.4000244
1138.477647	727.2000122
1139.034271	722.0
1139.590839	722.7999878
1140.147349	725.4000244
1140.703802	722.4000244
1141.260198	727.4000244
1141.816537	727.0
1142.37282	722.4000244
1142.929045	725.5999756
1143.485213	727.5999756
1144.041323	728.2000122
1144.597377	725.5999756
1145.153374	726.0
1145.709314	725.2000122
1146.265197	723.7999878
1146.821023	723.4000244
1147.376792	728.7999878
1147.932503	724.5999756
1148.488158	720.7999878
1149.043756	724.0
1149.599297	724.7999878
1150.154781	727.5999756
1150.710207	726.0
1151.265577	720.5999756
1151.82089	722.0
1152.376146	721.5999756
1152.931345	725.4000244
1153.486487	725.4000244
1154.041572	725.0
1154.5966	723.0
1155.151571	723.4000244
1155.706485	725.4000244
1156.261342	724.4000244
1156.816142	721.5999756
1157.370885	721.4000244
1157.925572	722.0
1158.480201	722.2000122
1159.034774	728.2000122
1159.589289	723.5999756
1160.143748	725.0
1160.698149	726.0
1161.252494	724.2000122
1161.806782	724.5999756
1162.361013	724.4000244
1162.915187	723.5999756
1163.469304	723.0
1164.023364	721.7999878
1164.577368	724.7999878
1165.131314	720.5999756
1165.685204	721.0
1166.239036	723.2000122
1166.792812	724.4000244
1167.346531	726.7999878
1167.900193	723.0
1168.453798	720.0
1169.007347	721.7999878
1169.560838	719.4000244
1170.114273	722.5999756
1170.66765	724.0
1171.220971	720.5999756
1171.774235	721.2000122
1172.327443	722.0
1172.880593	719.5999756
1173.433687	717.7999878
1173.986723	721.0
1174.539703	722.0
1175.092626	716.2000122
1175.645493	718.7999878
1176.198302	718.7999878
1176.751055	722.7999878
1177.303751	719.0
1177.85639	721.2000122
1178.408972	718.7999878
1178.961498	719.0
1179.513966	723.7999878
1180.066378	721.4000244
1180.618733	720.2000122
1181.171032	716.0
1181.723273	721.7999878
1182.275458	720.4000244
1182.827586	718.0
1183.379657	713.2000122
1183.931672	717.2000122
1184.48363	719.0
1185.035531	716.4000244
1185.587375	720.5999756
1186.139162	716.0
1186.690893	716.4000244
1187.242567	715.4000244
1187.794184	721.5999756
1188.345745	716.7999878
1188.897249	717.7999878
1189.448696	719.5999756
1190.000086	718.2000122
1190.55142	720.5999756
1191.102697	717.2000122
1191.653918	717.0
1192.205081	713.4000244
1192.756188	716.0
1193.307238	729.7999878
1193.858232	719.5999756
1194.409169	715.4000244
1194.960049	718.4000244
1195.510872	714.5999756
1196.061639	719.2000122
1196.612349	718.4000244
1197.163003	717.4000244
1197.713599	717.2000122
1198.264139	717.0
1198.814623	719.5999756
1199.36505	714.5999756
1199.91542	717.4000244
1200.465734	721.7999878
1201.01599	717.0
1201.566191	718.7999878
1202.116334	714.0
1202.666421	717.4000244
1203.216452	721.4000244
1203.766425	714.7999878
1204.316343	710.5999756
1204.866203	718.7999878
1205.416007	717.5999756
1205.965754	717.4000244
1206.515445	718.5999756
1207.065079	717.4000244
1207.614657	718.4000244
1208.164177	716.4000244
1208.713642	716.5999756
1209.26305	720.7999878
1209.812401	717.0
1210.361695	717.0
1210.910933	714.4000244
1211.460115	717.2000122
1212.00924	713.4000244
1212.558308	715.4000244
1213.10732	717.0
1213.656275	718.5999756
1214.205174	717.2000122
1214.754016	719.2000122
1215.302801	717.5999756
1215.85153	716.4000244
1216.400203	717.4000244
1216.948819	722.4000244
1217.497378	711.5999756
1218.045881	712.2000122
1218.594327	715.0
1219.142717	713.0
1219.691051	714.0
1220.239327	711.2000122
1220.787548	713.7999878
1221.335712	713.2000122
1221.883819	718.0
1222.43187	715.5999756
1222.979864	719.4000244
1223.527802	719.5999756
1224.075683	713.5999756
1224.623508	713.2000122
1225.171277	717.7999878
1225.718989	717.0
1226.266644	716.7999878
1226.814243	720.4000244
1227.361786	717.5999756
1227.909272	712.7999878
1228.456702	714.5999756
1229.004075	720.2000122
1229.551392	712.4000244
1230.098652	715.5999756
1230.645856	711.0
1231.193003	717.5999756
1231.740094	720.4000244
1232.287129	711.7999878
1232.834107	714.7999878
1233.381029	712.0
1233.927894	715.5999756
1234.474703	717.0
1235.021455	711.2000122
1235.568151	711.2000122
1236.114791	716.7999878
1236.661374	715.4000244
1237.207901	715.2000122
1237.754372	717.0
1238.300786	713.5999756
1238.847144	715.7999878
1239.393445	711.7999878
1239.93969	714.2000122
1240.485879	717.0
1241.032011	711.0
1241.578087	715.4000244
1242.124106	714.2000122
1242.67007	716.2000122
1243.215976	716.5999756
1243.761827	713.2000122
1244.307621	714.4000244
1244.853359	714.5999756
1245.39904	711.0
1245.944665	715.5999756
1246.490234	710.7999878
1247.035746	717.5999756
1247.581203	713.7999878
1248.126602	715.7999878
1248.671946	714.0
1249.217233	713.7999878
1249.762464	713.7999878
1250.307638	715.2000122
1250.852757	709.4000244
1251.397819	713.0
1251.942824	715.5999756
1252.487774	716.7999878
1253.032667	712.7999878
1253.577503	716.0
1254.122284	715.2000122
1254.667008	710.0
1255.211676	714.2000122
1255.756288	712.0
1256.300843	714.7999878
1256.845342	717.4000244
1257.389785	713.4000244
1257.934172	712.5999756
1258.478502	714.2000122
1259.022776	711.7999878
1259.566994	716.2000122
1260.111156	727.4000244
1260.655261	713.2000122
1261.199311	712.5999756
1261.743304	712.0
1262.28724	714.4000244
1262.831121	710.4000244
1263.374945	712.0
1263.918713	713.0
1264.462425	711.0
1265.006081	714.5999756
1265.54968	716.7999878
1266.093223	713.5999756
1266.636711	720.4000244
1267.180141	716.2000122
1267.723516	713.2000122
1268.266835	714.2000122
1268.810097	709.4000244
1269.353303	712.7999878
1269.896453	709.5999756
1270.439547	711.7999878
1270.982584	713.5999756
1271.525566	711.4000244
1272.068491	706.2000122
1272.61136	714.0
1273.154173	715.2000122
1273.69693	713.0
1274.239631	709.2000122
1274.782275	715.5999756
1275.324864	714.2000122
1275.867396	712.0
1276.409872	710.0
1276.952292	718.5999756
1277.494656	711.5999756
1278.036964	707.2000122
1278.579215	709.5999756
1279.121411	712.5999756
1279.66355	713.7999878
1280.205634	707.7999878
1280.747661	707.7999878
1281.289632	712.5999756
1281.831547	711.2000122
1282.373406	711.5999756
1282.915209	712.4000244
1283.456955	711.2000122
1283.998646	712.5999756
1284.540281	709.4000244
1285.081859	711.5999756
1285.623381	710.2000122
1286.164848	721.7999878
1286.706258	730.7999878
1287.247612	712.2000122
1287.788911	714.2000122
1288.330153	713.0
1288.871339	713.5999756
1289.412469	714.7999878
1289.953543	710.2000122
1290.494561	711.4000244
1291.035523	711.0
1291.576428	709.5999756
1292.117278	708.5999756
1292.658072	707.7999878
1293.19881	706.4000244
1293.739492	713.0
1294.280118	709.5999756
1294.820687	712.4000244
1295.361201	712.5999756
1295.901659	710.5999756
1296.442061	716.2000122
1296.982406	711.0
1297.522696	714.2000122
1298.06293	713.4000244
1298.603108	711.0
1299.143229	712.5999756
1299.683295	716.0
1300.223305	708.0
1300.763259	707.2000122
1301.303157	713.7999878
1301.842999	711.4000244
1302.382785	709.4000244
1302.922515	707.4000244
1303.462189	714.0
1304.001807	707.7999878
1304.541369	709.7999878
1305.080875	709.4000244
1305.620326	712.4000244
1306.15972	707.7999878
1306.699058	711.2000122
1307.238341	716.0
1307.777567	715.5999756
1308.316738	710.2000122
1308.855853	706.2000122
1309.394912	715.0
1309.933915	712.7999878
1310.472862	712.2000122
1311.011753	706.7999878
1311.550588	710.4000244
1312.089367	711.0
1312.62809	712.4000244
1313.166758	713.0
1313.70537	713.5999756
1314.243925	707.4000244
1314.782425	711.2000122
1315.320869	707.4000244
1315.859257	707.4000244
1316.397589	709.4000244
1316.935866	712.7999878
1317.474086	707.4000244
1318.012251	709.7999878
1318.55036	710.7999878
1319.088413	709.7999878
1319.62641	708.4000244
1320.164351	708.0
1320.702236	709.7999878
1321.240066	710.0
1321.777839	710.2000122
1322.315557	711.2000122
1322.853219	704.2000122
1323.390826	711.4000244
1323.928376	713.7999878
1324.465871	706.0
1325.003309	714.0
1325.540692	710.0
1326.07802	711.5999756
1327.689666	711.2000122
1328.22677	707.2000122
1328.763818	710.5999756
1329.300811	708.0
1329.837747	709.7999878
1330.374628	707.5999756
1330.911453	710.0
1331.448222	707.5999756
1331.984936	711.7999878
1332.521594	712.2000122
1333.058196	710.0
1333.594742	708.0
1334.131232	712.0
1334.667667	714.5999756
1335.204046	710.2000122
1335.740369	713.2000122
1336.276637	712.0
1336.812848	710.0
1337.349004	714.2000122
1337.885105	712.2000122
1338.421149	709.5999756
1338.957138	710.0
1339.493071	709.5999756
1340.028949	708.5999756
1340.56477	709.2000122
1341.100536	705.2000122
1341.636246	711.0
1342.171901	706.0
1342.7075	709.2000122
1343.243043	711.0
1343.77853	710.7999878
1344.313962	709.5999756
1344.849338	712.7999878
1345.384659	715.2000122
1345.919923	710.2000122
1346.455133	709.2000122
1346.990286	708.2000122
1347.525384	710.4000244
1348.060426	712.2000122
1348.595412	711.7999878
1349.130343	708.0
1349.665218	710.4000244
1350.200037	711.7999878
1350.734801	711.2000122
1351.269509	709.4000244
1351.804162	706.7999878
1352.338758	711.2000122
1352.8733	710.2000122
1353.407785	709.7999878
1353.942215	705.0
1354.476589	713.4000244
1355.010908	708.0
1355.545171	712.0
1356.079379	710.4000244
1356.61353	708.5999756
1357.147627	711.0
1357.681667	711.7999878
1358.215652	704.5999756
1358.749582	705.4000244
1359.283456	713.0
1359.817274	712.2000122
1360.351037	706.0
1360.884744	709.7999878
1361.418395	705.2000122
1361.951991	710.0
1362.485531	709.7999878
1363.019016	715.7999878
1363.552445	712.4000244
1364.085819	709.2000122
1364.619137	709.2000122
1365.1524	707.5999756
1365.685607	712.7999878
1366.218758	710.2000122
1366.751854	710.5999756
1367.284894	710.5999756
1367.817879	708.2000122
1368.350808	707.0
1368.883682	710.0
1369.4165	711.4000244
1369.949263	709.5999756
1370.48197	712.4000244
1371.014622	712.4000244
1371.547218	708.4000244
1372.079758	707.4000244
1372.612244	708.7999878
1373.144673	711.2000122
1373.677047	709.5999756
1374.209366	708.5999756
1374.741629	713.2000122
1375.273836	713.5999756
1375.805989	707.7999878
1376.338085	707.7999878
1376.870126	710.0
1377.402112	710.5999756
1377.934042	709.5999756
1378.465917	711.4000244
1378.997736	714.0
1379.5295	713.7999878
1380.061208	708.0
1380.592861	708.2000122
1381.124459	714.0
1381.656	709.5999756
1382.187487	710.7999878
1382.718918	712.0
1383.250294	711.4000244
1383.781614	710.4000244
1384.312879	712.0
1384.844088	708.4000244
1385.375242	708.2000122
1385.90634	711.0
1386.437383	707.0
1386.968371	710.4000244
1387.499303	712.5999756
1388.03018	711.0
1388.561001	709.2000122
1389.091767	723.4000244
1389.622478	739.5999756
1390.153133	717.5999756
1390.683733	712.0
1391.214277	711.2000122
1391.744766	714.0
1392.2752	716.5999756
1392.805578	707.7999878
1393.335901	708.7999878
1393.866168	708.2000122
1394.396381	706.4000244
1394.926537	710.0
1395.456639	711.0
1395.986685	709.5999756
1396.516675	708.2000122
1397.046611	711.7999878
1397.576491	707.0
1398.106315	713.2000122
1398.636084	708.5999756
1399.165798	711.4000244
1399.695457	711.5999756
1400.22506	709.7999878
1400.754608	709.5999756
1401.284101	706.2000122
1401.813538	707.7999878
1402.34292	707.2000122
1402.872247	709.0
1403.401518	709.2000122
1403.930734	709.0
1404.459895	710.4000244
1404.989	713.5999756
1405.51805	710.5999756
1406.047045	704.4000244
1406.575984	706.5999756
1407.104869	710.2000122
1407.633697	707.4000244
1408.162471	708.7999878
1408.691189	709.0
1409.219852	708.7999878
1409.74846	712.7999878
1410.277013	712.7999878
1410.80551	709.2000122
1411.333952	715.2000122
1411.862339	713.5999756
1412.39067	703.0
1412.918946	707.7999878
1413.447167	710.4000244
1413.975333	710.4000244
1414.503444	708.2000122
1415.031499	709.7999878
1415.559499	724.0
1416.087444	713.4000244
1416.615333	711.2000122
1417.143167	711.2000122
1417.670947	710.5999756
1418.19867	716.2000122
1418.726339	708.2000122
1419.253952	709.4000244
1419.781511	713.0
1420.309014	707.7999878
1420.836461	708.4000244
1421.363854	710.5999756
1421.891191	705.5999756
1422.418474	707.5999756
1422.945701	714.4000244
1423.472872	710.2000122
1423.999989	707.2000122
1424.52705	712.4000244
1425.054057	709.2000122
1425.581008	709.7999878
1426.107904	710.0
1426.634745	707.7999878
1427.16153	707.2000122
1427.688261	708.0
1428.214936	708.0
1428.741556	707.5999756
1429.268121	710.5999756
1429.794631	710.7999878
1430.321085	707.0
1430.847485	707.2000122
1431.373829	709.0
1431.900118	711.7999878
1432.426353	710.0
1432.952532	708.5999756
1433.478655	705.7999878
1434.004724	708.7999878
1434.530738	710.5999756
1435.056696	709.7999878
1435.5826	712.2000122
1436.108448	710.2000122
1436.634241	712.4000244
1437.159979	709.7999878
1437.685662	708.4000244
1438.21129	707.0
1438.736863	705.2000122
1439.262381	707.7999878
1439.787843	706.5999756
1440.313251	712.4000244
1440.838603	710.5999756
1441.3639	708.2000122
1441.889143	706.7999878
1442.41433	706.0
1442.939462	705.0
1443.464539	715.0
1443.989561	709.5999756
1444.514528	706.7999878
1445.03944	711.7999878
1445.564297	708.5999756
1446.089099	708.7999878
1446.613846	709.4000244
1447.138537	707.2000122
1447.663174	705.0
1448.187756	713.4000244
1448.712282	710.5999756
1449.236754	705.5999756
1449.761171	712.2000122
1450.285532	710.7999878
1450.809839	704.7999878
1451.33409	711.4000244
1451.858287	704.7999878
1452.382428	709.2000122
1452.906515	706.4000244
1453.430546	705.5999756
1453.954523	713.2000122
1454.478444	706.5999756
1455.002311	708.4000244
1455.526123	707.7999878
1456.049879	705.2000122
1456.573581	706.7999878
1457.097227	703.2000122
1457.620819	708.4000244
1458.144356	712.5999756
1458.667837	712.7999878
1459.191264	705.0
1459.714636	710.5999756
1460.237952	713.4000244
1460.761214	704.7999878
1461.284421	708.7999878
1461.807573	710.2000122
1462.33067	708.5999756
1462.853712	711.2000122
1463.376699	712.5999756
1463.899632	714.5999756
1464.422509	709.4000244
1464.945331	711.2000122
1465.468099	709.0
1465.990811	707.7999878
1466.513469	712.7999878
1467.036071	712.4000244
1467.558619	707.0
1468.081112	710.4000244
1468.60355	711.7999878
1469.125933	708.7999878
1469.648261	708.2000122
1470.170534	706.5999756
1470.692752	706.7999878
1471.214916	710.7999878
1471.737024	705.2000122
1472.259078	707.5999756
1472.781077	707.7999878
1473.303021	712.7999878
1473.82491	708.4000244
1474.346744	705.7999878
1474.868523	712.4000244
1475.390248	707.4000244
1475.911917	708.7999878
1476.433532	711.2000122
1476.955092	709.0
1477.476597	707.5999756
1477.998047	710.2000122
1478.519442	707.7999878
1479.040783	708.2000122
1479.562068	707.0
1480.083299	705.4000244
1480.604475	706.7999878
1481.125596	711.5999756
1481.646663	706.5999756
1482.167674	710.4000244
1482.688631	711.5999756
1483.209533	714.7999878
1483.73038	709.2000122
1484.251172	709.0
1484.771909	707.2000122
1485.292592	705.0
1485.81322	703.2000122
1486.333793	704.4000244
1486.854311	705.0
1487.374775	709.2000122
1487.895183	709.0
1488.415537	705.4000244
1488.935836	709.2000122
1489.456081	709.5999756
1489.97627	707.2000122
1490.496405	710.0
1491.016485	709.5999756
1491.536511	710.2000122
1492.056481	704.7999878
1492.576397	705.2000122
1493.096258	703.5999756
1493.616064	707.7999878
1494.135816	710.0
1494.655513	709.4000244
1495.175155	702.7999878
1495.694742	709.0
1496.214274	709.0
1496.733752	709.4000244
1497.253175	708.2000122
1497.772544	704.5999756
1498.291858	708.4000244
1498.811116	705.5999756
1499.330321	704.5999756
1499.84947	713.5999756
1500.368565	706.2000122
1500.887605	706.4000244
1501.406591	708.0
1501.925521	704.2000122
1502.444397	706.7999878
1502.963219	712.5999756
1503.481985	705.7999878
1504.000697	709.0
1504.519355	707.5999756
1505.037957	704.5999756
1505.556505	705.4000244
1506.074999	708.5999756
1506.593437	706.4000244
1507.111821	708.0
1507.63015	705.4000244
1508.148425	708.2000122
1508.666645	709.5999756
1509.18481	705.5999756
1509.702921	704.4000244
1510.220977	705.5999756
1510.738979	713.2000122
1511.256925	706.2000122
1511.774817	709.0
1512.292655	708.0
1512.810438	706.5999756
1513.328166	707.5999756
1513.84584	706.5999756
1514.363459	703.2000122
1514.881023	704.2000122
1515.398533	707.0
1515.915988	704.5999756
1516.433389	705.0
1516.950734	703.4000244
1517.468026	707.7999878
1517.985263	709.4000244
1518.502445	708.5999756
1519.019572	706.5999756
1519.536645	707.5999756
1520.053664	707.7999878
1520.570628	706.2000122
1521.087537	709.2000122
1521.604392	708.2000122
1522.121192	707.4000244
1522.637937	706.4000244
1523.154628	705.7999878
1523.671265	707.2000122
1524.187847	703.7999878
1524.704374	709.4000244
1525.220847	703.7999878
1525.737265	707.4000244
1526.253629	707.2000122
1526.769938	710.7999878
1527.286192	708.7999878
1527.802392	701.2000122
1528.318538	708.4000244
1528.834629	707.0
1529.350666	706.0
1529.866648	705.4000244
1530.382575	705.5999756
1530.898448	707.5999756
1531.414266	707.0
1531.93003	705.7999878
1532.44574	703.5999756
1532.961395	710.0
1533.476995	707.4000244
1533.992541	705.0
1534.508033	705.0
1535.02347	708.2000122
1535.538852	707.2000122
1536.05418	707.0
1536.569454	705.4000244
1537.084673	708.5999756
1537.599837	707.0
1538.114947	704.5999756
1538.630003	707.7999878
1539.145004	702.5999756
1539.659951	709.5999756
1540.174843	706.5999756
1540.689681	706.2000122
1541.204465	703.2000122
1541.719194	705.7999878
1542.233868	706.7999878
1542.748488	704.0
1543.263054	704.2000122
1543.777565	709.0
1544.292022	705.7999878
1544.806424	705.5999756
1545.320772	705.5999756
1545.835066	707.2000122
1546.349305	705.2000122
1546.863489	704.4000244
1547.37762	703.7999878
1547.891696	712.0
1548.405717	703.4000244
1548.919684	708.0
1549.433597	703.2000122
1549.947455	703.7999878
1550.461259	707.7999878
1550.975009	705.0
1551.488704	705.4000244
1552.002345	708.5999756
1552.515931	703.0
1553.029463	709.7999878
1553.542941	703.5999756
1554.056364	706.0
1554.569733	707.7999878
1555.083048	709.0
1555.596308	706.2000122
1556.109514	705.7999878
1556.622665	709.5999756
1557.135762	700.5999756
1557.648805	709.5999756
1558.161794	706.5999756
1558.674728	703.5999756
1559.187608	704.0
1559.700433	703.7999878
1560.213205	709.2000122
1560.725921	704.7999878
1561.238584	702.0
1561.751192	705.7999878
1562.263746	705.4000244
1562.776246	705.7999878
1563.288691	707.2000122
1563.801082	706.5999756
1564.313419	708.4000244
1564.825701	704.0
1565.337929	701.0
1565.850103	707.7999878
1566.362223	704.4000244
1566.874288	705.7999878
1567.386299	705.0
1567.898256	705.7999878
1568.410158	705.5999756
1568.922007	707.5999756
1569.4338	710.2000122
1569.94554	711.4000244
1570.457226	704.5999756
1570.968857	703.7999878
1571.480434	706.2000122
1571.991956	706.0
1572.503425	707.5999756
1573.014839	708.5999756
1573.526199	706.0
1574.037505	704.0
1574.548756	709.5999756
1575.059953	705.7999878
1575.571096	707.5999756
1576.082185	703.5999756
1576.59322	705.5999756
1577.1042	705.5999756
1577.615126	703.5999756
1578.125998	702.5999756
1578.636816	704.4000244
1579.14758	707.0
1579.658289	703.7999878
1580.168944	703.7999878
1580.679545	705.5999756
1581.190092	706.7999878
1581.700585	705.0
1582.211023	708.2000122
1582.721407	705.7999878
1583.231737	704.4000244
1583.742013	707.5999756
1584.252235	704.0
1584.762403	708.7999878
1585.272516	703.0
1585.782575	703.7999878
1586.292581	706.7999878
1586.802532	705.5999756
1587.312428	707.2000122
1587.822271	702.4000244
1588.33206	708.5999756
1588.841794	701.5999756
1589.351474	707.5999756
1589.8611	702.7999878
1590.370672	704.0
1590.88019	705.7999878
1591.389654	705.0
1591.899064	706.5999756
1592.408419	703.2000122
