1042.452273	730.0
1043.018714	734.0
1043.585098	727.4000244
1044.151424	730.7999878
1044.717692	727.0
1045.283903	730.2000122
1045.850056	731.4000244
1046.416151	724.0
1046.982188	731.5999756
1047.548167	727.2000122
1048.114089	725.5999756
1048.679953	729.2000122
1049.24576	731.5999756
1049.811509	730.0
1050.3772	728.7999878
1050.942833	725.4000244
1051.508408	730.7999878
1052.073926	725.4000244
1052.639387	719.4000244
1053.204789	728.7999878
1053.770134	727.7999878
1054.335421	724.0
1054.900651	725.5999756
1055.465823	726.0
1056.030937	723.2000122
1056.595993	725.7999878
1057.160992	726.0
1057.725934	721.5999756
1058.290817	721.4000244
1058.855643	729.0
1059.420411	723.4000244
1059.985122	721.7999878
1060.549775	721.2000122
1061.114371	725.7999878
1061.678908	728.4000244
1062.243389	723.2000122
1062.807811	723.5999756
1063.372176	723.7999878
1063.936483	722.0
1064.500733	723.4000244
1065.064925	720.5999756
1065.62906	719.7999878
1066.193137	728.4000244
1066.757156	717.4000244
1067.321118	719.5999756
1067.885022	723.4000244
1068.448869	721.2000122
1069.012658	722.2000122
1069.57639	720.4000244
1070.140063	730.2000122
1070.70368	722.7999878
1071.267239	723.4000244
1071.83074	722.5999756
1072.394184	719.5999756
1072.95757	721.4000244
1073.520899	726.7999878
1074.08417	721.7999878
1074.647383	720.7999878
1075.21054	721.0
1075.773638	720.2000122
1076.336679	721.4000244
1076.899663	718.7999878
1077.462589	719.2000122
1078.025457	715.2000122
1078.588268	722.0
1079.151022	721.4000244
1079.713718	723.2000122
1080.276356	719.0
1080.838937	723.0
1081.401461	718.2000122
1081.963927	720.5999756
1082.526336	723.0
1083.088687	720.0
1083.650981	718.5999756
1084.213217	719.0
1084.775396	724.5999756
1085.337517	719.0
1085.899581	720.5999756
1086.461587	720.7999878
1087.023536	719.4000244
1087.585428	719.4000244
1088.147262	724.4000244
1088.709039	717.7999878
1089.270758	720.5999756
1089.83242	722.2000122
1090.394024	715.7999878
1090.955571	719.7999878
1091.517061	719.7999878
1092.078493	719.5999756
1092.639868	718.4000244
1093.201185	714.5999756
1093.762445	720.2000122
1094.323648	718.7999878
1094.884793	716.0
1095.445881	719.7999878
1096.006911	719.4000244
1096.567884	718.7999878
1097.1288	722.5999756
1097.689659	718.7999878
1098.25046	719.4000244
1098.811203	715.5999756
1099.37189	718.5999756
1099.932518	715.7999878
1100.49309	720.2000122
1101.053604	722.0
1101.614061	716.7999878
1102.174461	716.7999878
1102.734803	721.4000244
1103.295088	716.4000244
1103.855316	717.2000122
1104.415486	714.0
1104.975599	723.2000122
1105.535655	717.0
1106.095653	720.0
1106.655594	718.7999878
1107.215478	716.0
1107.775305	717.7999878
1108.335074	712.7999878
1108.894786	713.4000244
1109.45444	720.7999878
1110.014038	716.4000244
1110.573578	712.4000244
1111.133061	716.5999756
1111.692486	714.4000244
1112.251854	715.7999878
1112.811165	716.5999756
1113.370419	715.5999756
1113.929616	715.2000122
1114.488755	714.2000122
1115.047837	717.7999878
1115.606862	719.4000244
1116.16583	721.5999756
1116.72474	715.5999756
1117.283593	717.0
1117.842389	715.7999878
1118.401128	713.4000244
1118.959809	719.0
1119.518433	720.0
1120.077	716.4000244
1120.63551	716.4000244
1121.193963	718.0
1121.752358	713.2000122
1122.310697	723.7999878
1122.868978	717.2000122
1123.427202	715.5999756
1123.985368	713.7999878
1124.543478	719.0
1125.10153	716.5999756
1125.659526	715.7999878
1126.217464	716.4000244
1126.775345	718.0
1127.333168	716.2000122
1127.890935	714.0
1128.448644	718.7999878
1129.006297	721.5999756
1129.563892	713.5999756
1130.12143	713.5999756
1130.678911	710.2000122
1131.236335	717.7999878
1131.793701	710.5999756
1132.351011	719.2000122
1132.908263	713.4000244
1133.465458	715.4000244
1134.022597	722.2000122
1134.579678	715.2000122
1135.136702	714.4000244
1135.693669	717.0
1136.250578	713.7999878
1136.807431	720.5999756
1137.364227	717.4000244
1137.920965	714.5999756
1138.477647	718.2000122
1139.034271	717.4000244
1139.590839	717.2000122
1140.147349	714.5999756
1140.703802	716.5999756
1141.260198	716.5999756
1141.816537	719.4000244
1142.37282	717.2000122
1142.929045	712.5999756
1143.485213	712.7999878
1144.041323	713.4000244
1144.597377	717.5999756
1145.153374	723.2000122
1145.709314	715.5999756
1146.265197	716.4000244
1146.821023	716.4000244
1147.376792	723.4000244
1147.932503	716.2000122
1148.488158	715.0
1149.043756	716.2000122
1149.599297	715.2000122
1150.154781	716.7999878
1150.710207	722.4000244
1151.265577	712.4000244
1151.82089	714.5999756
1152.376146	719.5999756
1152.931345	716.4000244
1153.486487	715.2000122
1154.041572	720.0
1154.5966	717.7999878
1155.151571	719.7999878
1155.706485	719.0
1156.261342	716.5999756
1156.816142	716.0
1157.370885	715.4000244
1157.925572	719.0
1158.480201	717.5999756
1159.034774	721.0
1159.589289	713.5999756
1160.143748	717.0
1160.698149	715.0
1161.252494	715.0
1161.806782	722.0
1162.361013	715.5999756
1162.915187	715.4000244
1163.469304	718.2000122
1164.023364	719.4000244
1164.577368	715.2000122
1165.131314	713.5999756
1165.685204	714.2000122
1166.239036	714.4000244
1166.792812	719.0
1167.346531	715.7999878
1167.900193	718.5999756
1168.453798	719.2000122
1169.007347	717.7999878
1169.560838	717.0
1170.114273	716.0
1170.66765	717.0
1171.220971	716.2000122
1171.774235	716.7999878
1172.327443	714.7999878
1172.880593	720.4000244
1173.433687	718.2000122
1173.986723	715.7999878
1174.539703	716.0
1175.092626	712.7999878
1175.645493	716.2000122
1176.198302	715.4000244
1176.751055	716.5999756
1177.303751	717.2000122
1177.85639	716.5999756
1178.408972	721.0
1178.961498	714.4000244
1179.513966	712.2000122
1180.066378	714.0
1180.618733	712.2000122
1181.171032	718.2000122
1181.723273	716.4000244
1182.275458	715.4000244
1182.827586	714.5999756
1183.379657	715.5999756
1183.931672	715.5999756
1184.48363	716.5999756
1185.035531	716.0
1185.587375	710.7999878
1186.139162	713.5999756
1186.690893	716.0
1187.242567	714.7999878
1187.794184	712.7999878
1188.345745	713.0
1188.897249	717.2000122
1189.448696	720.7999878
1190.000086	719.2000122
1190.55142	715.4000244
1191.102697	712.7999878
1191.653918	716.2000122
1192.205081	716.7999878
1192.756188	715.4000244
1193.858232	713.2000122
1194.409169	714.2000122
1194.960049	719.2000122
1195.510872	717.7999878
1196.061639	715.7999878
1196.612349	712.0
1197.163003	713.0
1197.713599	712.5999756
1198.264139	722.4000244
1198.814623	715.4000244
1199.36505	717.2000122
1199.91542	714.2000122
1200.465734	717.0
1201.01599	717.4000244
1201.566191	713.4000244
1202.116334	713.0
1202.666421	714.2000122
1203.216452	715.0
1203.766425	713.0
1204.316343	714.0
1204.866203	713.7999878
1205.416007	714.4000244
1205.965754	713.2000122
1206.515445	717.2000122
1207.065079	715.4000244
1207.614657	720.2000122
1208.164177	712.7999878
1208.713642	713.7999878
1209.26305	717.5999756
1209.812401	716.0
1210.361695	715.2000122
1210.910933	712.7999878
1211.460115	711.5999756
1212.00924	711.4000244
1212.558308	715.0
1213.10732	716.4000244
1213.656275	715.4000244
1214.205174	713.2000122
1214.754016	716.4000244
1215.302801	716.5999756
1215.85153	715.0
1216.400203	715.7999878
1216.948819	711.0
1217.497378	715.0
1218.045881	716.4000244
1218.594327	712.7999878
1219.142717	713.5999756
1219.691051	717.5999756
1220.239327	718.2000122
1220.787548	713.2000122
1221.335712	717.5999756
1221.883819	713.4000244
1222.43187	716.0
1222.979864	712.4000244
1223.527802	713.2000122
1224.075683	717.7999878
1224.623508	711.5999756
1225.171277	714.7999878
1225.718989	715.0
1226.266644	713.5999756
1226.814243	715.0
1227.361786	710.2000122
1227.909272	717.2000122
1228.456702	718.4000244
1229.004075	716.4000244
1229.551392	712.2000122
1230.098652	713.7999878
1230.645856	714.0
1231.193003	715.4000244
1231.740094	720.5999756
1232.287129	714.0
1232.834107	717.0
1233.381029	712.7999878
1233.927894	719.7999878
1234.474703	710.7999878
1235.021455	716.2000122
1235.568151	717.4000244
1236.114791	714.7999878
1236.661374	712.2000122
1237.207901	714.0
1237.754372	716.2000122
1238.300786	714.4000244
1238.847144	718.0
1239.393445	715.5999756
1239.93969	716.0
1240.485879	718.2000122
1241.032011	719.2000122
1241.578087	711.2000122
1242.124106	717.2000122
1242.67007	713.4000244
1243.215976	713.7999878
1243.761827	716.7999878
1244.307621	718.4000244
1244.853359	718.4000244
1245.39904	710.7999878
1245.944665	715.0
1246.490234	713.2000122
1247.035746	715.2000122
1247.581203	714.2000122
1248.126602	713.5999756
1248.671946	715.2000122
1249.217233	714.2000122
1249.762464	718.0
1250.307638	717.4000244
1250.852757	717.5999756
1251.397819	718.0
1251.942824	714.2000122
1252.487774	716.5999756
1253.032667	713.4000244
1253.577503	716.5999756
1254.122284	711.5999756
1254.667008	719.0
1255.211676	721.4000244
1255.756288	716.2000122
1256.300843	713.5999756
1256.845342	718.4000244
1257.389785	717.5999756
1257.934172	716.2000122
1258.478502	711.7999878
1259.022776	717.2000122
1259.566994	719.7999878
1260.111156	725.4000244
1260.655261	717.2000122
1261.199311	712.5999756
1261.743304	715.2000122
1262.28724	716.5999756
1262.831121	722.4000244
1263.374945	716.5999756
1263.918713	721.0
1264.462425	724.4000244
1265.006081	738.7999878
1265.54968	746.5999756
1266.093223	737.0
1266.636711	727.7999878
1267.180141	721.5999756
1267.723516	720.4000244
1268.266835	719.4000244
1268.810097	717.7999878
1269.353303	711.5999756
1269.896453	714.4000244
1270.439547	717.5999756
1270.982584	717.5999756
1271.525566	715.7999878
1272.068491	715.7999878
1272.61136	721.2000122
1273.154173	717.5999756
1273.69693	713.2000122
1274.239631	719.5999756
1274.782275	715.5999756
1275.324864	718.7999878
1276.952292	719.5999756
1277.494656	714.7999878
1278.036964	715.2000122
1278.579215	716.0
1279.121411	716.5999756
1279.66355	718.4000244
1280.205634	715.2000122
1280.747661	719.2000122
1281.289632	715.5999756
1281.831547	719.5999756
1282.373406	717.2000122
1282.915209	724.2000122
1283.456955	726.2000122
1283.998646	735.4000244
1284.540281	760.0
1285.081859	855.5999756
1285.623381	1125.800049
1286.164848	1111.199951
1286.706258	826.2000122
1287.247612	743.7999878
1287.788911	730.5999756
1288.330153	725.0
1288.871339	718.2000122
1289.412469	718.5999756
1289.953543	718.0
1290.494561	716.4000244
1291.035523	716.5999756
1291.576428	720.4000244
1292.117278	711.7999878
1292.658072	715.5999756
1293.19881	720.0
1293.739492	716.5999756
1294.280118	718.7999878
1294.820687	719.4000244
1295.361201	718.5999756
1295.901659	717.5999756
1296.442061	718.0
1296.982406	712.0
1297.522696	717.2000122
1298.06293	713.5999756
1298.603108	715.4000244
1299.143229	716.4000244
1299.683295	713.2000122
1300.223305	716.7999878
1300.763259	710.5999756
1301.303157	716.5999756
1301.842999	716.2000122
1302.382785	712.0
1302.922515	715.4000244
1303.462189	715.0
1304.001807	716.0
1304.541369	716.4000244
1305.080875	714.0
1305.620326	715.0
1306.15972	714.7999878
1306.699058	714.5999756
1307.238341	709.4000244
1307.777567	716.2000122
1308.316738	718.7999878
1308.855853	712.7999878
1309.394912	716.2000122
1309.933915	716.0
1310.472862	712.2000122
1311.011753	715.0
1311.550588	716.0
1312.089367	713.5999756
1312.62809	715.0
1313.166758	717.2000122
1313.70537	714.7999878
1314.243925	716.2000122
1314.782425	710.7999878
1315.320869	713.7999878
1315.859257	717.2000122
1316.397589	713.4000244
1316.935866	715.5999756
1317.474086	712.5999756
1318.012251	715.2000122
1318.55036	712.7999878
1319.088413	712.4000244
1319.62641	713.4000244
1320.164351	716.4000244
1320.702236	711.4000244
1321.240066	716.5999756
1321.777839	715.0
1322.315557	708.7999878
1322.853219	713.4000244
1323.390826	713.5999756
1323.928376	717.2000122
1324.465871	717.4000244
1325.003309	713.0
1325.540692	710.5999756
1326.07802	713.7999878
1326.615291	713.0
1327.152506	711.2000122
1327.689666	713.4000244
1328.22677	711.2000122
1328.763818	711.7999878
1329.300811	711.0
1329.837747	706.0
1330.374628	712.0
1330.911453	717.0
1331.448222	714.7999878
1331.984936	716.2000122
1332.521594	710.2000122
1333.058196	718.7999878
1333.594742	715.4000244
1334.131232	715.5999756
1334.667667	717.2000122
1335.204046	716.4000244
1335.740369	710.2000122
1336.276637	713.4000244
1336.812848	710.5999756
1337.349004	718.2000122
1337.885105	711.7999878
1338.421149	716.7999878
1338.957138	717.2000122
1339.493071	717.7999878
1340.028949	713.0
1340.56477	709.7999878
1341.100536	710.5999756
1341.636246	711.5999756
1342.171901	715.4000244
1342.7075	710.2000122
1343.243043	711.2000122
1343.77853	716.4000244
1344.313962	712.7999878
1344.849338	709.7999878
1345.384659	715.2000122
1345.919923	714.7999878
1346.455133	711.2000122
1346.990286	712.7999878
1347.525384	713.5999756
1348.060426	715.2000122
1348.595412	707.5999756
1349.130343	713.5999756
1349.665218	715.4000244
1350.200037	711.7999878
1350.734801	711.2000122
1351.269509	714.0
1351.804162	718.7999878
1352.338758	713.5999756
1352.8733	712.5999756
1353.407785	715.4000244
1353.942215	714.7999878
1354.476589	715.5999756
1355.010908	713.0
1355.545171	714.2000122
1356.079379	712.7999878
1356.61353	715.4000244
1357.147627	710.2000122
1357.681667	711.7999878
1358.215652	711.0
1358.749582	713.5999756
1359.283456	714.0
1359.817274	712.5999756
1360.351037	714.0
1360.884744	711.4000244
1361.418395	710.5999756
1361.951991	712.7999878
1362.485531	713.5999756
1363.019016	712.4000244
1363.552445	714.4000244
1364.085819	711.0
1364.619137	710.4000244
1365.1524	710.5999756
1365.685607	712.0
1366.218758	713.4000244
1366.751854	713.4000244
1367.284894	713.7999878
1367.817879	717.4000244
1368.350808	711.4000244
1368.883682	713.2000122
1369.4165	716.7999878
1369.949263	715.0
1370.48197	721.4000244
1371.014622	721.7999878
1371.547218	716.2000122
1372.079758	712.2000122
1372.612244	716.2000122
1373.144673	714.2000122
1373.677047	714.2000122
1374.209366	709.5999756
1374.741629	715.4000244
1375.273836	715.7999878
1375.805989	715.5999756
1376.338085	712.7999878
1376.870126	709.0
1377.402112	713.2000122
1377.934042	711.2000122
1378.465917	713.2000122
1378.997736	712.4000244
1379.5295	715.5999756
1380.061208	715.0
1380.592861	714.0
1381.124459	716.2000122
1381.656	713.7999878
1382.187487	711.2000122
1382.718918	716.0
1383.250294	717.4000244
1383.781614	718.2000122
1384.312879	716.2000122
1384.844088	715.5999756
1385.375242	716.4000244
1385.90634	718.2000122
1386.437383	722.0
1386.968371	727.0
1387.499303	738.4000244
1388.03018	788.5999756
1388.561001	1070.599976
1389.091767	1593.400024
1389.622478	1078.400024
1390.153133	782.2000122
1390.683733	735.0
1391.214277	726.7999878
1391.744766	716.5999756
1392.2752	719.2000122
1392.805578	714.5999756
1393.335901	713.2000122
1393.866168	717.4000244
1394.396381	718.5999756
1394.926537	713.5999756
1395.456639	716.5999756
1395.986685	709.2000122
1396.516675	714.0
1397.046611	713.5999756
1397.576491	712.7999878
1398.106315	715.2000122
1398.636084	716.2000122
1399.165798	715.7999878
1399.695457	713.5999756
1400.22506	711.4000244
1400.754608	708.7999878
1401.284101	716.0
1401.813538	714.4000244
1402.34292	714.2000122
1402.872247	714.4000244
1403.401518	711.0
1403.930734	717.2000122
1404.459895	713.0
1404.989	712.5999756
1405.51805	717.2000122
1406.047045	711.2000122
1406.575984	716.5999756
1407.104869	714.5999756
1407.633697	713.0
1408.162471	715.4000244
1408.691189	719.4000244
1409.219852	726.4000244
1409.74846	736.5999756
1410.277013	770.2000122
1410.80551	761.2000122
1411.333952	726.0
1411.862339	714.7999878
1412.39067	717.4000244
1412.918946	714.2000122
1413.447167	711.2000122
1413.975333	714.0
1414.503444	715.4000244
1415.031499	716.5999756
1415.559499	720.5999756
1416.087444	712.2000122
1416.615333	708.4000244
1417.143167	713.0
1417.670947	714.5999756
1418.19867	711.4000244
1418.726339	711.7999878
1419.253952	713.2000122
1419.781511	712.2000122
1420.309014	711.7999878
1420.836461	712.4000244
1421.363854	711.2000122
1421.891191	709.2000122
1422.418474	710.4000244
1422.945701	715.0
1423.472872	717.7999878
1423.999989	713.0
1424.52705	712.5999756
1425.054057	713.5999756
1425.581008	716.4000244
1426.107904	710.0
1426.634745	715.2000122
1427.16153	712.2000122
1427.688261	713.2000122
1428.214936	713.7999878
1428.741556	711.4000244
1429.268121	714.5999756
1429.794631	715.7999878
1430.321085	710.5999756
1430.847485	716.5999756
1431.373829	709.5999756
1431.900118	714.5999756
1432.426353	714.2000122
1432.952532	711.4000244
1433.478655	711.7999878
1434.004724	711.4000244
1434.530738	715.4000244
1435.056696	713.5999756
1435.5826	710.4000244
1436.108448	714.0
1436.634241	713.4000244
1437.159979	705.5999756
1437.685662	713.2000122
1438.21129	711.0
1438.736863	711.2000122
1439.262381	717.5999756
1439.787843	707.7999878
1440.313251	710.5999756
1440.838603	709.4000244
1441.3639	714.0
1441.889143	710.2000122
1442.41433	710.2000122
1442.939462	711.7999878
1443.464539	711.2000122
1443.989561	712.7999878
1444.514528	709.4000244
1445.03944	710.2000122
1445.564297	708.7999878
1446.089099	707.7999878
1446.613846	710.2000122
1447.138537	711.5999756
1447.663174	714.5999756
1448.187756	708.7999878
1448.712282	713.0
1449.236754	709.7999878
1449.761171	710.7999878
1450.285532	712.4000244
1450.809839	709.2000122
1451.33409	707.0
1451.858287	708.7999878
1452.382428	706.7999878
1452.906515	705.2000122
1453.430546	710.0
1453.954523	713.5999756
1454.478444	714.7999878
1455.002311	707.4000244
1455.526123	709.7999878
1456.049879	708.2000122
1456.573581	714.0
1457.097227	714.0
1457.620819	710.4000244
1458.144356	712.2000122
1458.667837	712.4000244
1459.191264	711.7999878
1459.714636	711.7999878
1460.237952	710.0
1460.761214	709.0
1461.284421	713.2000122
1461.807573	712.5999756
1462.33067	712.5999756
1462.853712	711.7999878
1463.376699	711.4000244
1463.899632	708.7999878
1464.422509	714.2000122
1464.945331	711.4000244
1465.468099	711.2000122
1465.990811	710.7999878
1466.513469	712.2000122
1467.036071	709.4000244
1467.558619	710.4000244
1468.081112	715.2000122
1468.60355	713.2000122
1469.125933	708.7999878
1469.648261	713.0
1470.170534	714.0
1470.692752	708.5999756
1471.214916	708.4000244
1471.737024	710.4000244
1472.259078	707.5999756
1472.781077	713.0
1473.303021	714.5999756
1473.82491	710.4000244
1474.346744	707.5999756
1474.868523	713.2000122
1475.390248	710.0
1475.911917	709.7999878
1476.433532	704.0
1476.955092	706.5999756
1477.476597	710.7999878
1477.998047	706.4000244
1478.519442	714.2000122
1479.040783	711.0
1479.562068	707.7999878
1480.083299	711.4000244
1480.604475	710.4000244
1481.125596	707.4000244
1481.646663	704.4000244
1482.167674	711.5999756
1482.688631	710.4000244
1483.209533	712.7999878
1483.73038	712.5999756
1484.251172	706.4000244
1484.771909	709.2000122
1485.292592	711.2000122
1485.81322	710.7999878
1486.333793	711.2000122
1486.854311	712.7999878
1487.374775	711.2000122
1487.895183	708.4000244
1488.415537	711.0
1488.935836	712.0
1489.456081	712.4000244
1489.97627	711.7999878
1490.496405	711.4000244
1491.016485	711.4000244
1491.536511	711.0
1492.056481	711.2000122
1492.576397	710.7999878
1493.096258	710.7999878
1493.616064	714.2000122
1494.135816	711.0
1494.655513	710.7999878
1495.175155	713.0
1495.694742	709.7999878
1496.214274	709.0
1496.733752	711.0
1497.253175	708.0
1497.772544	709.7999878
1498.291858	708.4000244
1498.811116	709.7999878
1499.330321	706.2000122
1499.84947	716.7999878
1500.368565	704.7999878
1500.887605	712.0
1501.406591	704.5999756
1501.925521	709.4000244
1502.444397	708.7999878
1502.963219	708.5999756
1503.481985	711.5999756
1504.000697	706.0
1504.519355	708.2000122
1505.037957	714.2000122
1505.556505	706.4000244
1506.074999	705.4000244
1506.593437	708.7999878
1507.111821	706.2000122
1507.63015	707.4000244
1508.148425	705.0
1508.666645	709.4000244
1509.18481	708.4000244
1509.702921	708.0
1510.220977	707.5999756
1510.738979	715.7999878
1511.256925	707.5999756
1511.774817	710.2000122
1512.292655	709.4000244
1512.810438	708.2000122
1513.328166	708.2000122
1513.84584	712.2000122
1514.363459	712.2000122
1514.881023	711.0
1515.398533	707.0
1515.915988	712.5999756
1516.433389	708.4000244
1516.950734	709.7999878
1517.468026	709.2000122
1517.985263	710.5999756
1518.502445	708.2000122
1519.019572	707.7999878
1519.536645	706.2000122
1520.053664	708.7999878
1520.570628	706.2000122
1521.087537	711.0
1521.604392	706.7999878
1522.121192	705.5999756
1522.637937	708.4000244
1523.154628	706.7999878
1523.671265	708.4000244
1524.187847	708.5999756
1524.704374	709.0
1525.220847	707.2000122
1525.737265	706.0
1526.253629	709.2000122
1526.769938	709.2000122
1527.286192	714.4000244
1527.802392	710.5999756
1528.318538	713.5999756
1528.834629	707.4000244
1529.350666	707.0
1529.866648	706.7999878
1530.382575	712.4000244
1530.898448	709.5999756
1531.414266	710.2000122
1531.93003	710.0
1532.44574	706.5999756
1532.961395	708.4000244
1533.476995	710.0
1533.992541	710.2000122
1534.508033	710.2000122
1535.02347	709.2000122
1535.538852	704.4000244
1536.05418	711.7999878
1536.569454	708.5999756
1537.084673	712.7999878
1537.599837	708.0
1538.114947	711.7999878
1538.630003	710.4000244
1539.145004	709.5999756
1539.659951	704.5999756
1540.174843	709.4000244
1540.689681	711.4000244
1541.204465	707.2000122
1541.719194	710.4000244
1542.233868	712.2000122
1542.748488	709.0
1543.263054	712.2000122
1543.777565	708.4000244
1544.292022	709.2000122
1544.806424	705.2000122
1545.320772	708.0
1545.835066	706.7999878
1546.349305	708.0
1546.863489	709.7999878
1547.37762	707.5999756
1547.891696	708.0
1548.405717	709.7999878
1548.919684	707.7999878
1549.433597	705.7999878
1549.947455	706.7999878
1550.461259	707.4000244
1550.975009	709.2000122
1551.488704	708.7999878
1552.002345	709.2000122
1552.515931	709.4000244
1553.029463	711.0
1553.542941	707.2000122
1554.056364	709.0
1554.569733	706.7999878
1555.083048	711.4000244
1555.596308	712.7999878
1556.109514	713.7999878
1556.622665	707.4000244
1557.135762	708.5999756
1557.648805	707.7999878
1558.161794	707.4000244
1558.674728	709.5999756
1559.187608	706.0
1559.700433	710.4000244
1560.213205	710.5999756
1560.725921	707.4000244
1561.238584	706.5999756
1561.751192	708.7999878
1562.263746	714.0
1562.776246	710.7999878
1563.288691	713.4000244
1563.801082	706.4000244
1564.313419	708.7999878
1564.825701	706.0
1565.337929	706.4000244
1565.850103	711.4000244
1566.362223	711.5999756
1566.874288	708.0
1567.386299	708.4000244
1567.898256	711.5999756
1568.410158	708.4000244
1568.922007	705.5999756
1569.4338	710.0
1569.94554	707.7999878
1570.457226	709.4000244
1570.968857	707.7999878
1571.480434	709.2000122
1571.991956	709.4000244
1572.503425	706.7999878
1573.014839	706.4000244
1573.526199	713.4000244
1574.037505	713.4000244
1574.548756	709.7999878
1575.059953	710.7999878
1575.571096	710.7999878
1576.082185	707.7999878
1576.59322	709.2000122
1577.1042	709.5999756
1577.615126	708.2000122
1578.125998	710.4000244
1578.636816	709.5999756
1579.14758	706.2000122
1579.658289	712.0
1580.168944	708.7999878
1580.679545	710.5999756
1581.190092	709.7999878
1581.700585	709.2000122
1582.211023	709.7999878
1582.721407	708.2000122
1583.231737	711.4000244
1583.742013	709.4000244
1584.252235	710.5999756
1584.762403	709.4000244
1585.272516	710.4000244
1585.782575	711.4000244
1586.292581	707.4000244
1586.802532	706.2000122
1587.312428	706.4000244
1587.822271	707.2000122
1588.33206	706.7999878
1588.841794	708.2000122
1589.351474	713.0
1589.8611	711.5999756
1590.370672	709.0
1590.88019	709.5999756
1591.389654	706.0
1591.899064	711.0
1592.408419	705.2000122
