1042.452273	691.2000122
1043.018714	691.0
1043.585098	690.0
1044.151424	693.7999878
1044.717692	695.7999878
1045.283903	689.4000244
1045.850056	688.0
1046.416151	690.2000122
1046.982188	688.5999756
1047.548167	688.0
1048.114089	685.7999878
1048.679953	687.4000244
1049.24576	687.7999878
1049.811509	689.5999756
1050.3772	687.2000122
1050.942833	688.2000122
1051.508408	684.7999878
1052.073926	684.7999878
1052.639387	686.0
1053.204789	687.5999756
1053.770134	685.5999756
1054.335421	687.7999878
1054.900651	685.2000122
1055.465823	685.2000122
1056.030937	686.2000122
1056.595993	682.5999756
1057.160992	686.2000122
1057.725934	684.5999756
1058.290817	682.5999756
1058.855643	687.7999878
1059.420411	681.7999878
1059.985122	687.0
1060.549775	686.7999878
1061.114371	681.2000122
1061.678908	683.0
1062.243389	683.0
1062.807811	684.4000244
1063.372176	681.2000122
1063.936483	685.5999756
1064.500733	684.7999878
1065.064925	685.2000122
1065.62906	681.5999756
1066.193137	684.0
1066.757156	683.5999756
1067.321118	680.5999756
1067.885022	682.2000122
1068.448869	683.4000244
1069.012658	683.2000122
1069.57639	683.4000244
1070.140063	687.0
1070.70368	684.5999756
1071.267239	684.0
1071.83074	682.7999878
1072.394184	680.7999878
1072.95757	679.7999878
1073.520899	679.7999878
1074.08417	681.2000122
1074.647383	678.5999756
1075.21054	681.0
1075.773638	680.5999756
1076.336679	676.5999756
1076.899663	683.5999756
1077.462589	682.5999756
1078.025457	681.2000122
1078.588268	682.4000244
1079.151022	678.4000244
1079.713718	680.7999878
1080.276356	680.2000122
1080.838937	679.7999878
1081.401461	680.7999878
1081.963927	679.4000244
1082.526336	683.5999756
1083.088687	683.0
1083.650981	678.0
1084.213217	681.7999878
1084.775396	678.7999878
1085.337517	681.7999878
1085.899581	680.7999878
1086.461587	678.2000122
1087.023536	680.7999878
1087.585428	677.5999756
1088.147262	678.5999756
1088.709039	677.7999878
1089.270758	680.4000244
1089.83242	678.5999756
1090.394024	677.2000122
1090.955571	682.0
1091.517061	677.7999878
1092.078493	679.2000122
1092.639868	681.5999756
1093.201185	677.4000244
1093.762445	679.5999756
1094.323648	677.2000122
1094.884793	678.2000122
1095.445881	679.2000122
1096.006911	681.7999878
1096.567884	676.4000244
1097.1288	686.0
1097.689659	678.4000244
1098.25046	675.5999756
1098.811203	681.0
1099.37189	678.2000122
1099.932518	676.5999756
1100.49309	675.7999878
1101.053604	676.7999878
1101.614061	679.2000122
1102.174461	679.5999756
1102.734803	678.2000122
1103.295088	681.0
1103.855316	676.7999878
1104.415486	675.7999878
1104.975599	676.7999878
1105.535655	681.0
1106.095653	682.4000244
1106.655594	678.0
1107.215478	675.7999878
1107.775305	680.4000244
1108.335074	675.4000244
1108.894786	676.4000244
1109.45444	678.7999878
1110.014038	676.7999878
1110.573578	676.4000244
1111.133061	678.0
1111.692486	679.2000122
1112.251854	677.7999878
1112.811165	675.4000244
1113.370419	675.0
1113.929616	675.2000122
1114.488755	676.2000122
1115.047837	674.4000244
1115.606862	675.0
1116.16583	678.7999878
1116.72474	677.7999878
1117.283593	679.2000122
1117.842389	676.0
1118.401128	672.2000122
1118.959809	675.7999878
1119.518433	673.7999878
1120.077	675.4000244
1120.63551	675.4000244
1121.193963	678.4000244
1121.752358	677.0
1122.310697	675.5999756
1122.868978	677.4000244
1123.427202	678.2000122
1123.985368	675.0
1124.543478	674.5999756
1125.10153	673.4000244
1125.659526	675.0
1126.217464	674.0
1126.775345	671.2000122
1127.333168	678.4000244
1127.890935	676.7999878
1128.448644	678.0
1129.006297	676.7999878
1129.563892	673.2000122
1130.12143	679.4000244
1130.678911	677.0
1131.236335	676.7999878
1131.793701	677.0
1132.351011	674.5999756
1132.908263	672.4000244
1133.465458	673.7999878
1134.022597	678.0
1134.579678	679.4000244
1135.136702	675.5999756
1135.693669	674.5999756
1136.250578	673.2000122
1136.807431	678.0
1137.364227	672.2000122
1137.920965	675.5999756
1138.477647	674.7999878
1139.034271	678.2000122
1139.590839	676.0
1140.147349	678.4000244
1140.703802	674.0
1141.260198	674.0
1141.816537	674.4000244
1142.37282	677.7999878
1142.929045	675.5999756
1143.485213	675.0
1144.041323	675.7999878
1144.597377	675.5999756
1145.153374	671.0
1145.709314	675.2000122
1146.265197	680.5999756
1147.376792	680.0
1147.932503	675.0
1148.488158	675.7999878
1149.043756	674.5999756
1149.599297	673.7999878
1150.154781	676.4000244
1150.710207	675.4000244
1151.265577	676.7999878
1151.82089	679.7999878
1152.376146	678.7999878
1152.931345	672.4000244
1153.486487	673.2000122
1154.041572	674.5999756
1154.5966	674.4000244
1155.151571	674.7999878
1155.706485	676.5999756
1156.261342	673.7999878
1156.816142	674.0
1157.370885	674.0
1157.925572	675.5999756
1158.480201	677.2000122
1159.034774	671.2000122
1159.589289	674.5999756
1160.143748	672.5999756
1160.698149	673.5999756
1161.252494	674.4000244
1161.806782	674.2000122
1162.361013	675.5999756
1162.915187	676.0
1163.469304	674.5999756
1164.023364	675.0
1164.577368	675.0
1165.131314	675.0
1165.685204	671.7999878
1166.239036	674.7999878
1166.792812	675.5999756
1167.346531	673.7999878
1167.900193	671.0
1168.453798	671.7999878
1169.007347	672.2000122
1169.560838	674.7999878
1170.114273	673.5999756
1170.66765	669.4000244
1171.220971	674.5999756
1171.774235	673.7999878
1172.327443	673.7999878
1172.880593	672.7999878
1173.433687	671.7999878
1173.986723	675.0
1174.539703	672.2000122
1175.092626	676.4000244
1175.645493	675.0
1176.198302	670.7999878
1176.751055	672.4000244
1177.303751	676.0
1177.85639	672.4000244
1178.408972	673.0
1178.961498	671.2000122
1179.513966	674.5999756
1180.066378	673.4000244
1180.618733	672.7999878
1181.171032	674.0
1181.723273	676.7999878
1182.275458	674.2000122
1182.827586	673.5999756
1183.379657	675.4000244
1183.931672	674.5999756
1184.48363	671.2000122
1185.035531	673.5999756
1185.587375	672.0
1186.139162	671.2000122
1186.690893	675.2000122
1187.242567	675.0
1187.794184	673.5999756
1188.345745	678.5999756
1188.897249	675.7999878
1189.448696	672.0
1190.000086	674.0
1190.55142	675.2000122
1191.102697	674.2000122
1191.653918	676.5999756
1192.205081	672.0
1192.756188	674.4000244
1193.307238	686.0
1193.858232	672.4000244
1194.409169	674.4000244
1194.960049	674.4000244
1195.510872	674.4000244
1196.061639	674.5999756
1196.612349	672.4000244
1197.163003	672.2000122
1197.713599	670.4000244
1198.264139	674.4000244
1198.814623	672.7999878
1199.36505	672.0
1199.91542	672.7999878
1200.465734	670.4000244
1201.01599	671.2000122
1201.566191	674.0
1202.116334	672.7999878
1202.666421	673.4000244
1203.216452	674.7999878
1203.766425	674.2000122
1204.316343	672.7999878
1204.866203	672.2000122
1205.416007	672.5999756
1205.965754	676.5999756
1206.515445	673.0
1207.065079	674.7999878
1207.614657	672.5999756
1208.164177	673.5999756
1208.713642	670.5999756
1209.26305	673.2000122
1209.812401	672.5999756
1210.361695	671.5999756
1210.910933	670.4000244
1211.460115	671.5999756
1212.00924	673.7999878
1212.558308	670.5999756
1213.10732	674.5999756
1213.656275	671.7999878
1214.205174	670.2000122
1214.754016	674.4000244
1215.302801	673.7999878
1215.85153	672.0
1216.400203	674.2000122
1216.948819	671.7999878
1217.497378	671.0
1218.045881	673.4000244
1218.594327	673.4000244
1219.142717	673.7999878
1219.691051	672.2000122
1220.239327	675.5999756
1220.787548	671.4000244
1221.335712	672.4000244
1221.883819	675.2000122
1222.43187	672.2000122
1222.979864	672.0
1223.527802	670.7999878
1224.075683	673.7999878
1224.623508	671.5999756
1225.171277	674.4000244
1225.718989	674.0
1226.266644	672.0
1226.814243	670.5999756
1227.361786	671.0
1227.909272	672.2000122
1228.456702	673.2000122
1229.004075	672.7999878
1229.551392	674.4000244
1230.098652	671.5999756
1230.645856	671.0
1231.193003	670.7999878
1231.740094	676.2000122
1232.287129	672.0
1232.834107	671.7999878
1233.381029	669.5999756
1233.927894	672.4000244
1234.474703	671.5999756
1235.021455	673.4000244
1235.568151	670.2000122
1236.114791	671.2000122
1236.661374	672.7999878
1237.207901	673.0
1237.754372	670.5999756
1238.300786	671.0
1238.847144	671.4000244
1239.393445	672.5999756
1239.93969	670.0
1240.485879	673.0
1241.032011	670.7999878
1241.578087	670.7999878
1242.124106	669.5999756
1242.67007	673.2000122
1243.215976	671.4000244
1243.761827	671.2000122
1244.307621	672.5999756
1244.853359	672.2000122
1245.39904	671.7999878
1245.944665	671.5999756
1246.490234	671.5999756
1247.035746	672.7999878
1247.581203	672.5999756
1248.126602	671.4000244
1248.671946	673.0
1249.217233	671.2000122
1249.762464	671.0
1250.307638	671.0
1250.852757	673.2000122
1251.397819	671.0
1251.942824	673.7999878
1252.487774	672.0
1253.032667	672.5999756
1253.577503	670.7999878
1254.122284	675.2000122
1254.667008	673.4000244
1255.211676	671.0
1255.756288	673.0
1256.300843	673.4000244
1256.845342	669.4000244
1257.389785	672.2000122
1257.934172	673.7999878
1258.478502	670.0
1259.022776	671.4000244
1259.566994	673.5999756
1260.111156	686.7999878
1260.655261	672.0
1261.199311	671.5999756
1261.743304	674.4000244
1262.28724	672.7999878
1262.831121	671.5999756
1263.374945	671.7999878
1263.918713	673.7999878
1264.462425	672.4000244
1265.006081	673.2000122
1265.54968	671.5999756
1266.093223	675.7999878
1266.636711	675.0
1267.180141	669.0
1267.723516	671.0
1268.266835	671.0
1268.810097	669.5999756
1269.353303	670.0
1269.896453	671.4000244
1270.439547	672.0
1270.982584	671.2000122
1271.525566	672.5999756
1272.068491	673.5999756
1272.61136	671.5999756
1273.154173	672.5999756
1273.69693	669.7999878
1274.239631	671.2000122
1274.782275	673.0
1275.324864	670.7999878
1275.867396	671.2000122
1276.409872	669.2000122
1276.952292	672.4000244
1277.494656	671.5999756
1278.036964	673.0
1278.579215	668.5999756
1279.121411	671.0
1279.66355	674.2000122
1280.205634	671.0
1280.747661	672.0
1281.289632	669.5999756
1281.831547	669.5999756
1282.373406	671.4000244
1282.915209	668.4000244
1283.456955	670.0
1283.998646	671.4000244
1284.540281	671.2000122
1285.081859	671.0
1285.623381	674.4000244
1286.164848	690.5999756
1286.706258	702.2000122
1287.247612	674.7999878
1287.788911	673.2000122
1288.330153	673.5999756
1288.871339	671.7999878
1289.412469	672.4000244
1289.953543	671.7999878
1290.494561	672.4000244
1291.035523	671.7999878
1291.576428	673.4000244
1292.117278	671.2000122
1292.658072	669.5999756
1293.19881	670.5999756
1293.739492	673.0
1294.280118	671.0
1294.820687	672.5999756
1295.361201	671.0
1295.901659	674.2000122
1296.442061	671.2000122
1296.982406	669.7999878
1297.522696	672.2000122
1298.06293	669.4000244
1298.603108	669.7999878
1299.143229	670.5999756
1299.683295	675.0
1300.223305	671.5999756
1300.763259	669.4000244
1301.303157	674.0
1301.842999	670.2000122
1302.382785	668.4000244
1302.922515	672.0
1303.462189	674.0
1304.001807	674.2000122
1304.541369	670.4000244
1305.080875	670.7999878
1305.620326	669.2000122
1306.15972	670.0
1306.699058	670.4000244
1307.238341	671.0
1307.777567	670.4000244
1308.316738	670.0
1308.855853	672.2000122
1309.394912	671.5999756
1309.933915	668.0
1310.472862	671.2000122
1311.011753	674.0
1311.550588	672.7999878
1312.089367	675.4000244
1312.62809	672.2000122
1313.166758	671.4000244
1313.70537	672.7999878
1314.243925	671.5999756
1314.782425	671.5999756
1315.320869	668.4000244
1315.859257	673.2000122
1316.397589	668.7999878
1316.935866	671.7999878
1317.474086	670.4000244
1318.012251	670.4000244
1318.55036	672.4000244
1319.088413	672.0
1319.62641	670.4000244
1320.164351	670.4000244
1320.702236	671.4000244
1321.240066	669.2000122
1321.777839	673.5999756
1322.315557	671.4000244
1322.853219	672.0
1323.390826	671.2000122
1323.928376	676.0
1324.465871	672.2000122
1325.003309	672.5999756
1325.540692	669.4000244
1326.07802	672.7999878
1326.615291	669.4000244
1327.152506	671.2000122
1327.689666	671.0
1328.22677	672.0
1328.763818	671.0
1329.300811	672.2000122
1329.837747	672.5999756
1330.374628	672.5999756
1330.911453	674.0
1331.448222	669.5999756
1331.984936	671.0
1332.521594	671.7999878
1333.058196	669.5999756
1333.594742	671.4000244
1334.131232	669.4000244
1334.667667	669.4000244
1335.204046	670.4000244
1335.740369	672.0
1336.276637	671.7999878
1336.812848	672.4000244
1337.349004	669.5999756
1337.885105	672.5999756
1338.421149	670.4000244
1338.957138	669.7999878
1339.493071	671.7999878
1340.028949	672.5999756
1340.56477	672.0
1341.100536	669.7999878
1341.636246	674.5999756
1342.171901	671.0
1342.7075	668.7999878
1343.243043	671.4000244
1343.77853	672.0
1344.313962	672.7999878
1344.849338	674.2000122
1345.384659	668.4000244
1345.919923	671.2000122
1346.455133	672.4000244
1346.990286	671.2000122
1347.525384	669.2000122
1348.060426	669.4000244
1348.595412	671.0
1349.130343	672.4000244
1349.665218	670.4000244
1350.200037	671.0
1350.734801	670.7999878
1351.269509	671.7999878
1351.804162	669.2000122
1352.338758	672.4000244
1352.8733	669.7999878
1353.407785	672.0
1353.942215	671.0
1354.476589	670.7999878
1355.010908	671.0
1355.545171	671.2000122
1356.079379	673.0
1356.61353	671.4000244
1357.147627	672.2000122
1357.681667	673.5999756
1358.215652	672.5999756
1358.749582	671.4000244
1359.283456	668.0
1359.817274	671.0
1360.351037	672.2000122
1360.884744	672.7999878
1361.418395	671.4000244
1361.951991	670.7999878
1362.485531	671.5999756
1363.019016	671.0
1363.552445	669.5999756
1364.085819	671.7999878
1364.619137	669.0
1365.1524	671.4000244
1365.685607	669.4000244
1366.218758	668.0
1366.751854	675.2000122
1367.284894	673.2000122
1367.817879	671.7999878
1368.350808	672.2000122
1368.883682	671.7999878
1369.4165	670.2000122
1369.949263	671.4000244
1370.48197	667.7999878
1371.014622	671.7999878
1371.547218	670.0
1372.079758	669.7999878
1372.612244	671.7999878
1373.144673	674.2000122
1373.677047	673.5999756
1374.209366	672.4000244
1374.741629	670.5999756
1375.273836	672.5999756
1375.805989	670.5999756
1376.338085	669.4000244
1376.870126	668.2000122
1377.402112	670.4000244
1377.934042	674.5999756
1378.465917	671.2000122
1378.997736	669.4000244
1379.5295	673.7999878
1380.061208	672.2000122
1380.592861	669.7999878
1381.124459	674.7999878
1381.656	670.7999878
1382.187487	672.5999756
1382.718918	673.7999878
1383.250294	673.0
1383.781614	672.2000122
1384.312879	672.4000244
1384.844088	671.7999878
1385.375242	668.2000122
1385.90634	670.4000244
1386.437383	669.5999756
1386.968371	672.5999756
1387.499303	671.2000122
1388.03018	674.4000244
1388.561001	672.2000122
1389.091767	693.0
1389.622478	715.7999878
1390.153133	677.0
1390.683733	671.4000244
1391.214277	671.2000122
1391.744766	668.4000244
1392.2752	673.7999878
1392.805578	670.7999878
1393.335901	671.0
1393.866168	673.7999878
1394.396381	674.4000244
1394.926537	669.5999756
1395.456639	673.7999878
1395.986685	669.0
1396.516675	669.0
1397.046611	671.2000122
1397.576491	672.4000244
1398.106315	670.5999756
1398.636084	672.2000122
1399.165798	669.4000244
1399.695457	671.5999756
1400.22506	671.0
1400.754608	672.0
1401.284101	671.0
1401.813538	673.4000244
1402.34292	670.5999756
1402.872247	671.2000122
1403.401518	672.2000122
1403.930734	668.5999756
1404.459895	674.2000122
1404.989	673.4000244
1405.51805	672.7999878
1406.047045	671.2000122
1406.575984	669.5999756
1407.104869	669.7999878
1407.633697	672.7999878
1408.162471	671.7999878
1408.691189	671.4000244
1409.219852	673.2000122
1409.74846	671.7999878
1410.277013	671.5999756
1410.80551	677.7999878
1411.333952	671.7999878
1411.862339	669.0
1412.39067	671.4000244
1412.918946	672.2000122
1413.447167	670.5999756
1413.975333	672.7999878
1414.503444	671.2000122
1415.031499	672.2000122
1415.559499	681.4000244
1416.087444	672.2000122
1416.615333	670.7999878
1417.143167	670.7999878
1417.670947	669.4000244
1418.19867	669.7999878
1418.726339	672.0
1419.253952	669.2000122
1419.781511	670.0
1420.309014	671.7999878
1420.836461	670.7999878
1421.363854	674.0
1421.891191	670.7999878
1422.418474	671.2000122
1422.945701	669.5999756
1423.472872	672.0
1423.999989	670.7999878
1424.52705	670.7999878
1425.054057	670.5999756
1425.581008	673.7999878
1426.107904	673.4000244
1426.634745	667.4000244
1427.16153	669.7999878
1427.688261	669.5999756
1428.214936	668.2000122
1428.741556	669.4000244
1429.268121	670.5999756
1429.794631	672.0
1430.321085	671.5999756
1430.847485	671.5999756
1431.373829	672.5999756
1431.900118	670.4000244
1432.426353	669.7999878
1432.952532	670.5999756
1433.478655	670.4000244
1434.004724	671.4000244
1434.530738	673.0
1435.056696	669.5999756
1435.5826	671.7999878
1436.108448	671.5999756
1436.634241	671.0
1437.159979	671.5999756
1437.685662	670.0
1438.21129	670.5999756
1438.736863	675.5999756
1439.262381	672.2000122
1439.787843	669.2000122
1440.313251	670.4000244
1440.838603	673.7999878
1441.3639	669.7999878
1441.889143	669.0
1442.41433	671.4000244
1442.939462	669.7999878
1443.464539	673.5999756
1443.989561	671.2000122
1444.514528	670.5999756
1445.03944	670.7999878
1445.564297	672.5999756
1446.089099	673.7999878
1446.613846	673.0
1447.138537	671.5999756
1447.663174	673.4000244
1448.187756	671.0
1448.712282	672.5999756
1449.236754	668.0
1449.761171	669.4000244
1450.285532	671.7999878
1450.809839	672.0
1451.33409	671.0
1451.858287	671.7999878
1452.382428	673.0
1452.906515	671.4000244
1453.430546	670.0
1453.954523	672.0
1454.478444	670.5999756
1455.002311	667.5999756
1455.526123	669.2000122
1456.049879	671.2000122
1456.573581	669.4000244
1457.097227	669.5999756
1457.620819	668.7999878
1458.144356	673.2000122
1458.667837	674.7999878
1459.191264	672.7999878
1459.714636	672.4000244
1460.237952	670.2000122
1460.761214	669.7999878
1461.284421	670.7999878
1461.807573	671.4000244
1462.33067	671.2000122
1462.853712	670.7999878
1463.376699	675.4000244
1463.899632	670.4000244
1464.422509	668.0
1464.945331	670.7999878
1465.468099	672.7999878
1465.990811	670.2000122
1466.513469	670.5999756
1467.036071	668.5999756
1467.558619	671.2000122
1468.081112	669.4000244
1468.60355	672.2000122
1469.125933	669.2000122
1469.648261	671.0
1470.170534	670.5999756
1470.692752	671.5999756
1471.214916	671.2000122
1471.737024	672.4000244
1472.259078	668.0
1472.781077	670.4000244
1473.303021	669.2000122
1473.82491	670.2000122
1474.346744	669.2000122
1474.868523	670.2000122
1475.390248	668.0
1475.911917	669.7999878
1476.433532	671.2000122
1476.955092	669.2000122
1477.476597	673.5999756
1477.998047	669.4000244
1478.519442	669.7999878
1479.040783	668.5999756
1479.562068	670.7999878
1480.083299	672.0
1480.604475	672.0
1481.125596	672.4000244
1481.646663	671.4000244
1482.167674	671.7999878
1482.688631	670.2000122
1483.209533	669.7999878
1483.73038	672.2000122
1484.251172	672.4000244
1484.771909	671.7999878
1485.292592	671.4000244
1485.81322	670.5999756
1486.333793	667.2000122
1486.854311	671.5999756
1487.374775	670.2000122
1487.895183	672.4000244
1488.415537	666.5999756
1488.935836	670.7999878
1489.456081	670.2000122
1489.97627	673.0
1490.496405	670.4000244
1491.016485	672.5999756
1491.536511	669.5999756
1492.056481	671.5999756
1492.576397	672.4000244
1493.096258	673.7999878
1493.616064	669.4000244
1494.135816	671.5999756
1494.655513	668.7999878
1495.175155	671.4000244
1495.694742	674.7999878
1496.214274	670.2000122
1496.733752	672.0
1497.253175	669.0
1497.772544	669.2000122
1498.291858	671.2000122
1498.811116	671.7999878
1499.330321	669.5999756
1499.84947	676.2000122
1500.368565	669.4000244
1500.887605	671.2000122
1501.406591	668.2000122
1501.925521	671.7999878
1502.444397	671.0
1502.963219	672.0
1503.481985	669.7999878
1504.000697	670.5999756
1504.519355	667.5999756
1505.037957	669.2000122
1505.556505	674.5999756
1506.074999	672.0
1506.593437	669.4000244
1507.111821	672.2000122
1507.63015	669.5999756
1508.148425	671.4000244
1508.666645	669.4000244
1509.18481	667.4000244
1509.702921	671.4000244
1510.220977	671.4000244
1510.738979	677.7999878
1511.256925	669.7999878
1511.774817	667.4000244
1512.292655	670.7999878
1512.810438	672.0
1513.328166	671.5999756
1513.84584	671.5999756
1514.363459	671.7999878
1514.881023	669.7999878
1515.398533	668.5999756
1515.915988	672.7999878
1516.433389	670.4000244
1516.950734	669.5999756
1517.468026	670.2000122
1517.985263	671.5999756
1518.502445	672.2000122
1519.019572	668.5999756
1519.536645	670.0
1520.053664	671.5999756
1520.570628	671.4000244
1521.087537	671.5999756
1521.604392	670.4000244
1522.121192	670.0
1522.637937	670.7999878
1523.154628	670.0
1523.671265	669.2000122
1524.187847	669.5999756
1524.704374	669.7999878
1525.220847	668.4000244
1525.737265	669.2000122
1526.253629	672.0
1526.769938	668.5999756
1527.286192	670.0
1527.802392	669.5999756
1528.318538	671.5999756
1528.834629	670.4000244
1529.350666	669.5999756
1529.866648	671.5999756
1530.382575	672.5999756
1530.898448	670.5999756
1531.414266	671.4000244
1531.93003	672.4000244
1532.44574	669.7999878
1532.961395	670.0
1533.476995	672.4000244
1533.992541	670.7999878
1534.508033	668.4000244
1535.02347	673.2000122
1535.538852	671.4000244
1536.05418	667.0
1536.569454	670.2000122
1537.084673	670.4000244
1537.599837	668.7999878
1538.114947	671.2000122
1538.630003	669.5999756
1539.145004	667.7999878
1539.659951	670.2000122
1540.174843	671.4000244
1540.689681	671.0
1541.204465	670.5999756
1541.719194	671.0
1542.233868	671.5999756
1542.748488	670.0
1543.263054	670.4000244
1543.777565	672.5999756
1544.292022	669.0
1544.806424	673.0
1545.320772	672.2000122
1545.835066	670.5999756
1546.349305	668.0
1546.863489	668.5999756
1547.37762	671.0
1547.891696	671.0
1548.405717	670.5999756
1548.919684	670.0
1549.433597	671.4000244
1549.947455	674.4000244
1550.461259	670.0
1550.975009	669.5999756
1551.488704	669.5999756
1552.002345	670.0
1552.515931	670.4000244
1553.029463	670.5999756
1553.542941	668.5999756
1554.056364	669.5999756
1554.569733	671.2000122
1555.083048	671.2000122
1555.596308	670.5999756
1556.109514	669.5999756
1556.622665	672.4000244
1557.135762	671.0
1557.648805	671.5999756
1558.161794	669.2000122
1558.674728	673.2000122
1559.187608	671.0
1559.700433	670.0
1560.213205	670.5999756
1560.725921	672.5999756
1561.238584	674.5999756
1561.751192	669.7999878
1562.263746	673.2000122
1562.776246	674.4000244
1563.288691	671.4000244
1563.801082	668.2000122
1564.313419	668.7999878
1564.825701	670.5999756
1565.337929	669.2000122
1565.850103	670.4000244
1566.362223	672.5999756
1566.874288	670.7999878
1567.386299	670.2000122
1567.898256	672.2000122
1568.410158	671.5999756
1568.922007	668.7999878
1569.4338	672.2000122
1569.94554	671.0
1570.457226	670.4000244
1570.968857	671.0
1571.480434	669.2000122
1571.991956	673.2000122
1572.503425	668.5999756
1573.014839	668.7999878
1573.526199	670.7999878
1574.037505	669.0
1574.548756	673.0
1575.059953	668.7999878
1575.571096	669.4000244
1576.082185	670.0
1576.59322	672.5999756
1577.1042	672.7999878
1577.615126	668.5999756
1578.125998	670.2000122
1578.636816	669.5999756
1579.14758	671.2000122
1579.658289	669.2000122
1580.168944	668.5999756
1580.679545	671.2000122
1581.190092	673.0
1581.700585	670.0
1582.211023	670.7999878
1582.721407	669.2000122
1583.231737	670.2000122
1583.742013	671.7999878
1584.252235	667.4000244
1584.762403	668.5999756
1585.272516	670.7999878
1585.782575	670.0
1586.292581	668.5999756
1586.802532	673.2000122
1587.312428	671.4000244
1587.822271	671.4000244
1588.33206	669.7999878
1588.841794	670.4000244
1589.351474	670.7999878
1589.8611	670.5999756
1590.370672	670.7999878
1590.88019	670.5999756
1591.389654	670.4000244
1591.899064	671.5999756
1592.408419	671.5999756
