1042.452273	791.0
1043.018714	798.4000244
1043.585098	797.4000244
1044.151424	795.4000244
1044.717692	793.0
1045.283903	786.2000122
1045.850056	794.7999878
1046.416151	796.5999756
1046.982188	795.5999756
1047.548167	791.7999878
1048.114089	793.0
1048.679953	792.4000244
1049.24576	787.5999756
1049.811509	789.4000244
1050.3772	790.2000122
1050.942833	788.4000244
1051.508408	788.5999756
1052.073926	788.4000244
1052.639387	787.5999756
1053.204789	787.7999878
1053.770134	787.4000244
1054.335421	785.0
1054.900651	789.7999878
1055.465823	782.7999878
1056.030937	784.4000244
1056.595993	785.4000244
1057.160992	782.2000122
1057.725934	788.4000244
1058.290817	784.4000244
1058.855643	779.7999878
1059.420411	778.5999756
1059.985122	788.2000122
1060.549775	785.0
1061.114371	784.7999878
1061.678908	785.4000244
1062.243389	783.0
1062.807811	777.5999756
1063.372176	783.2000122
1063.936483	780.2000122
1064.500733	779.7999878
1065.064925	783.2000122
1065.62906	779.0
1066.193137	783.5999756
1066.757156	785.5999756
1067.321118	774.4000244
1067.885022	783.7999878
1068.448869	786.2000122
1069.012658	783.7999878
1069.57639	779.7999878
1070.140063	788.2000122
1070.70368	783.2000122
1071.267239	776.0
1071.83074	778.2000122
1072.394184	777.4000244
1072.95757	778.0
1073.520899	780.2000122
1074.08417	780.2000122
1074.647383	780.7999878
1075.21054	772.7999878
1075.773638	778.4000244
1076.336679	780.5999756
1076.899663	779.7999878
1077.462589	771.7999878
1078.025457	779.7999878
1078.588268	782.5999756
1079.151022	778.4000244
1079.713718	772.2000122
1080.276356	777.0
1080.838937	778.0
1081.401461	774.2000122
1081.963927	777.5999756
1082.526336	785.5999756
1083.088687	775.2000122
1083.650981	771.7999878
1084.213217	773.7999878
1084.775396	778.2000122
1085.337517	778.4000244
1085.899581	774.0
1086.461587	784.4000244
1087.023536	773.0
1087.585428	768.2000122
1088.147262	777.4000244
1088.709039	776.0
1089.270758	777.5999756
1089.83242	770.4000244
1090.394024	770.0
1090.955571	784.4000244
1091.517061	777.2000122
1092.078493	770.4000244
1092.639868	776.4000244
1093.201185	771.2000122
1093.762445	777.0
1094.323648	775.5999756
1094.884793	769.4000244
1095.445881	771.2000122
1096.006911	769.0
1096.567884	770.4000244
1097.1288	780.0
1097.689659	769.7999878
1098.25046	769.0
1098.811203	770.4000244
1099.37189	773.2000122
1099.932518	773.2000122
1100.49309	772.0
1101.053604	768.4000244
1101.614061	769.2000122
1102.174461	768.0
1102.734803	768.0
1103.295088	768.7999878
1103.855316	765.4000244
1104.415486	768.0
1104.975599	773.2000122
1105.535655	768.2000122
1106.095653	772.0
1106.655594	771.4000244
1107.215478	769.0
1107.775305	768.2000122
1108.335074	764.2000122
1108.894786	770.5999756
1109.45444	765.5999756
1110.014038	770.0
1110.573578	772.2000122
1111.133061	769.5999756
1111.692486	764.2000122
1112.251854	760.2000122
1112.811165	766.5999756
1113.370419	765.5999756
1113.929616	763.7999878
1114.488755	765.2000122
1115.047837	762.5999756
1115.606862	762.4000244
1116.16583	761.0
1116.72474	767.5999756
1117.283593	764.0
1117.842389	768.7999878
1118.401128	760.5999756
1118.959809	770.0
1119.518433	761.4000244
1120.077	769.5999756
1120.63551	764.5999756
1121.193963	767.5999756
1121.752358	763.4000244
1122.310697	763.2000122
1122.868978	761.7999878
1123.427202	762.7999878
1123.985368	762.0
1124.543478	772.2000122
1125.10153	766.2000122
1125.659526	766.0
1126.217464	768.7999878
1126.775345	764.0
1127.333168	767.0
1127.890935	769.5999756
1128.448644	764.4000244
1129.006297	764.5999756
1129.563892	761.5999756
1130.12143	766.7999878
1130.678911	757.4000244
1131.236335	765.7999878
1131.793701	761.0
1132.351011	758.5999756
1132.908263	758.4000244
1133.465458	764.7999878
1134.022597	762.2000122
1134.579678	763.5999756
1135.136702	761.2000122
1135.693669	755.2000122
1136.250578	762.5999756
1136.807431	761.2000122
1137.364227	763.7999878
1137.920965	763.2000122
1138.477647	763.7999878
1139.034271	764.7999878
1139.590839	765.0
1140.147349	758.5999756
1140.703802	764.5999756
1141.260198	764.2000122
1141.816537	763.7999878
1142.37282	763.5999756
1142.929045	769.5999756
1143.485213	762.5999756
1144.041323	771.7999878
1144.597377	764.2000122
1145.153374	759.7999878
1145.709314	761.4000244
1146.265197	759.5999756
1146.821023	760.5999756
1147.376792	771.2000122
1147.932503	764.7999878
1148.488158	763.5999756
1149.043756	765.4000244
1149.599297	764.2000122
1150.154781	763.7999878
1150.710207	775.5999756
1151.265577	796.5999756
1151.82089	787.0
1152.376146	767.5999756
1152.931345	759.5999756
1153.486487	759.7999878
1154.041572	762.4000244
1154.5966	762.7999878
1155.151571	757.4000244
1155.706485	756.7999878
1156.261342	758.5999756
1156.816142	753.0
1157.370885	758.0
1157.925572	759.7999878
1158.480201	763.2000122
1159.034774	760.4000244
1159.589289	760.4000244
1160.143748	756.2000122
1160.698149	763.0
1161.252494	762.2000122
1161.806782	760.7999878
1162.361013	761.7999878
1162.915187	756.5999756
1163.469304	756.5999756
1164.023364	755.4000244
1164.577368	758.4000244
1165.131314	757.7999878
1165.685204	759.2000122
1166.239036	760.0
1166.792812	761.0
1167.346531	754.7999878
1167.900193	763.4000244
1168.453798	755.0
1169.007347	762.5999756
1169.560838	761.7999878
1170.114273	758.7999878
1170.66765	756.0
1171.220971	756.2000122
1171.774235	764.2000122
1172.327443	757.2000122
1172.880593	756.0
1173.433687	757.5999756
1173.986723	755.4000244
1174.539703	758.0
1175.092626	755.4000244
1175.645493	758.5999756
1176.198302	757.7999878
1176.751055	759.5999756
1177.303751	758.0
1177.85639	755.4000244
1178.408972	759.4000244
1178.961498	759.0
1179.513966	759.5999756
1180.066378	754.2000122
1180.618733	761.7999878
1181.171032	756.5999756
1181.723273	760.5999756
1182.275458	754.0
1182.827586	759.2000122
1183.379657	759.7999878
1183.931672	754.0
1184.48363	755.5999756
1185.035531	757.0
1185.587375	761.0
1186.139162	752.0
1186.690893	756.2000122
1187.242567	755.2000122
1187.794184	758.7999878
1188.345745	758.5999756
1188.897249	756.2000122
1189.448696	750.5999756
1190.000086	754.5999756
1190.55142	754.0
1191.102697	756.0
1191.653918	757.7999878
1192.205081	756.4000244
1192.756188	758.0
1193.307238	770.2000122
1193.858232	753.0
1194.409169	752.5999756
1194.960049	758.7999878
1195.510872	751.4000244
1196.061639	752.4000244
1196.612349	756.7999878
1197.163003	752.2000122
1197.713599	757.4000244
1198.264139	755.4000244
1198.814623	758.0
1199.36505	759.4000244
1199.91542	758.5999756
1200.465734	754.7999878
1201.01599	754.4000244
1201.566191	757.0
1202.116334	755.4000244
1202.666421	754.7999878
1203.216452	753.0
1203.766425	749.0
1204.316343	760.2000122
1204.866203	751.2000122
1205.416007	751.2000122
1205.965754	754.2000122
1206.515445	754.4000244
1207.065079	753.0
1207.614657	757.0
1208.164177	750.2000122
1208.713642	753.4000244
1209.26305	752.4000244
1209.812401	749.2000122
1210.361695	752.4000244
1210.910933	764.2000122
1211.460115	756.0
1212.00924	748.5999756
1212.558308	753.4000244
1213.10732	750.5999756
1213.656275	753.0
1214.205174	757.0
1214.754016	750.4000244
1215.302801	754.7999878
1215.85153	752.4000244
1216.400203	752.0
1216.948819	756.0
1217.497378	751.0
1218.045881	752.0
1218.594327	750.5999756
1219.142717	752.7999878
1219.691051	751.4000244
1220.239327	752.0
1220.787548	754.7999878
1221.335712	753.4000244
1221.883819	744.2000122
1222.43187	752.2000122
1222.979864	752.5999756
1223.527802	755.2000122
1224.075683	753.4000244
1224.623508	752.0
1225.171277	752.2000122
1225.718989	749.5999756
1226.266644	752.4000244
1226.814243	751.2000122
1227.361786	746.0
1227.909272	749.2000122
1228.456702	750.7999878
1229.004075	753.5999756
1229.551392	753.7999878
1230.098652	748.7999878
1230.645856	752.7999878
1231.193003	753.0
1231.740094	750.2000122
1232.287129	751.4000244
1232.834107	749.0
1233.381029	750.7999878
1233.927894	756.5999756
1234.474703	748.0
1235.021455	748.2000122
1235.568151	751.7999878
1236.114791	750.5999756
1236.661374	747.2000122
1237.207901	746.5999756
1237.754372	750.7999878
1238.300786	755.2000122
1238.847144	749.2000122
1239.393445	747.0
1239.93969	747.0
1240.485879	756.2000122
1241.032011	747.7999878
1241.578087	748.2000122
1242.124106	753.2000122
1242.67007	746.5999756
1243.215976	746.4000244
1243.761827	750.0
1244.307621	745.7999878
1244.853359	751.4000244
1245.39904	748.5999756
1245.944665	746.5999756
1246.490234	749.0
1247.035746	748.2000122
1247.581203	752.5999756
1248.126602	749.2000122
1248.671946	748.2000122
1249.217233	748.4000244
1249.762464	747.5999756
1250.307638	743.7999878
1250.852757	746.5999756
1251.397819	749.0
1251.942824	744.5999756
1252.487774	748.2000122
1253.032667	748.5999756
1253.577503	751.0
1254.122284	747.7999878
1254.667008	749.2000122
1255.211676	751.2000122
1255.756288	748.5999756
1256.300843	750.5999756
1256.845342	749.0
1257.389785	745.5999756
1257.934172	747.4000244
1258.478502	745.4000244
1259.022776	748.4000244
1259.566994	750.4000244
1260.111156	762.4000244
1260.655261	750.5999756
1261.199311	748.0
1261.743304	750.7999878
1262.28724	745.7999878
1262.831121	748.2000122
1263.374945	749.5999756
1263.918713	750.2000122
1264.462425	755.0
1265.006081	754.7999878
1265.54968	772.5999756
1266.093223	762.2000122
1266.636711	752.0
1267.180141	753.2000122
1267.723516	742.2000122
1268.266835	746.7999878
1268.810097	747.0
1269.353303	746.4000244
1269.896453	750.5999756
1270.439547	749.0
1270.982584	747.2000122
1271.525566	747.4000244
1272.068491	748.5999756
1272.61136	744.0
1273.154173	746.4000244
1273.69693	746.7999878
1274.239631	751.7999878
1274.782275	740.7999878
1275.324864	747.2000122
1275.867396	743.2000122
1276.409872	742.4000244
1276.952292	749.7999878
1277.494656	750.7999878
1278.036964	742.2000122
1278.579215	745.5999756
1279.121411	746.4000244
1279.66355	746.2000122
1280.205634	748.2000122
1280.747661	744.7999878
1281.289632	748.7999878
1281.831547	746.5999756
1282.373406	744.0
1282.915209	747.0
1283.456955	745.5999756
1283.998646	749.7999878
1284.540281	761.4000244
1285.081859	794.4000244
1285.623381	927.0
1286.164848	999.5999756
1286.706258	824.4000244
1287.247612	763.7999878
1287.788911	753.7999878
1288.330153	743.5999756
1288.871339	750.2000122
1289.412469	750.2000122
1289.953543	748.0
1290.494561	743.0
1291.035523	743.4000244
1291.576428	743.2000122
1292.117278	745.0
1292.658072	742.4000244
1293.19881	744.4000244
1293.739492	742.2000122
1294.280118	743.0
1294.820687	746.4000244
1295.361201	743.0
1295.901659	747.7999878
1296.442061	744.0
1296.982406	743.2000122
1297.522696	746.5999756
1298.06293	746.7999878
1298.603108	745.7999878
1299.143229	744.0
1299.683295	739.4000244
1300.223305	742.2000122
1300.763259	745.0
1301.303157	740.4000244
1301.842999	744.4000244
1302.382785	745.4000244
1302.922515	748.2000122
1303.462189	741.4000244
1304.001807	745.0
1304.541369	747.2000122
1305.080875	747.5999756
1305.620326	745.4000244
1306.15972	741.7999878
1306.699058	742.0
1307.238341	743.2000122
1307.777567	746.7999878
1308.316738	740.4000244
1308.855853	741.5999756
1309.394912	741.0
1309.933915	741.0
1310.472862	746.0
1311.011753	741.5999756
1311.550588	734.4000244
1312.089367	736.4000244
1312.62809	746.4000244
1313.166758	737.7999878
1313.70537	738.4000244
1314.243925	739.4000244
1314.782425	743.5999756
1315.320869	738.0
1315.859257	742.2000122
1316.397589	740.4000244
1316.935866	738.7999878
1317.474086	738.2000122
1318.012251	742.5999756
1318.55036	742.0
1319.088413	743.7999878
1319.62641	735.4000244
1320.164351	741.5999756
1320.702236	742.0
1321.240066	743.2000122
1321.777839	746.2000122
1322.315557	742.7999878
1322.853219	746.0
1323.390826	741.4000244
1323.928376	739.7999878
1324.465871	739.7999878
1325.003309	747.0
1325.540692	737.5999756
1326.07802	736.2000122
1326.615291	740.2000122
1327.152506	745.2000122
1327.689666	738.5999756
1328.22677	737.0
1328.763818	743.7999878
1329.300811	738.7999878
1329.837747	739.7999878
1330.374628	738.0
1330.911453	742.0
1331.448222	742.7999878
1331.984936	739.5999756
1332.521594	739.0
1333.058196	741.5999756
1333.594742	741.5999756
1334.131232	741.0
1334.667667	734.4000244
1335.204046	741.7999878
1335.740369	740.4000244
1336.276637	741.5999756
1336.812848	744.0
1337.349004	741.0
1337.885105	736.2000122
1338.421149	741.2000122
1338.957138	737.5999756
1339.493071	741.2000122
1340.028949	734.4000244
1340.56477	738.7999878
1341.100536	736.5999756
1341.636246	739.2000122
1342.171901	741.5999756
1342.7075	740.0
1343.243043	739.2000122
1343.77853	734.0
1344.313962	745.4000244
1344.849338	737.2000122
1345.384659	736.4000244
1345.919923	737.5999756
1346.455133	739.4000244
1346.990286	739.2000122
1347.525384	739.4000244
1348.060426	734.2000122
1348.595412	738.0
1349.130343	733.7999878
1349.665218	740.0
1350.200037	741.0
1350.734801	739.5999756
1351.269509	739.4000244
1351.804162	737.5999756
1352.338758	734.7999878
1352.8733	734.2000122
1353.407785	740.7999878
1353.942215	741.7999878
1354.476589	736.0
1355.010908	734.2000122
1355.545171	737.2000122
1356.079379	743.4000244
1356.61353	739.2000122
1357.147627	738.7999878
1357.681667	741.4000244
1358.215652	742.2000122
1358.749582	737.5999756
1359.283456	737.4000244
1359.817274	738.5999756
1360.351037	733.7999878
1360.884744	738.2000122
1361.418395	737.0
1361.951991	738.2000122
1362.485531	744.7999878
1363.019016	735.4000244
1363.552445	737.2000122
1364.085819	734.7999878
1364.619137	743.2000122
1365.1524	737.0
1365.685607	740.4000244
1366.218758	738.0
1366.751854	741.4000244
1367.284894	733.7999878
1367.817879	731.4000244
1368.350808	740.2000122
1368.883682	735.2000122
1369.4165	739.4000244
1369.949263	740.2000122
1370.48197	740.7999878
1371.014622	741.5999756
1371.547218	737.2000122
1372.079758	736.0
1372.612244	740.5999756
1373.144673	736.4000244
1373.677047	736.2000122
1374.209366	736.0
1374.741629	735.2000122
1375.273836	740.4000244
1375.805989	735.2000122
1376.338085	733.4000244
1376.870126	732.7999878
1377.402112	734.7999878
1377.934042	738.7999878
1378.465917	738.5999756
1378.997736	733.7999878
1379.5295	734.4000244
1380.061208	737.4000244
1380.592861	737.7999878
1381.124459	732.7999878
1381.656	740.0
1382.187487	733.4000244
1382.718918	730.7999878
1383.250294	738.4000244
1383.781614	735.4000244
1384.312879	740.4000244
1384.844088	742.7999878
1385.375242	740.5999756
1385.90634	742.2000122
1386.437383	742.2000122
1386.968371	743.4000244
1387.499303	747.7999878
1388.03018	766.0
1388.561001	871.2000122
1389.091767	1201.199951
1389.622478	984.5999756
1390.153133	779.4000244
1390.683733	743.4000244
1391.214277	745.5999756
1391.744766	740.4000244
1392.2752	740.2000122
1392.805578	735.5999756
1393.335901	738.7999878
1393.866168	741.5999756
1394.396381	735.2000122
1394.926537	737.2000122
1395.456639	737.4000244
1395.986685	732.7999878
1396.516675	737.4000244
1397.046611	736.7999878
1397.576491	735.5999756
1398.106315	735.7999878
1398.636084	733.5999756
1399.165798	738.2000122
1399.695457	733.7999878
1400.22506	734.2000122
1400.754608	737.5999756
1401.284101	734.2000122
1401.813538	734.4000244
1402.34292	732.4000244
1402.872247	735.4000244
1403.401518	731.2000122
1403.930734	737.2000122
1404.459895	736.0
1404.989	735.4000244
1405.51805	736.4000244
1406.047045	733.0
1406.575984	734.2000122
1407.104869	735.2000122
1407.633697	732.7999878
1408.162471	736.0
1408.691189	734.2000122
1409.219852	744.7999878
1409.74846	747.0
1410.277013	767.7999878
1410.80551	770.0
1411.333952	748.5999756
1411.862339	737.5999756
1412.39067	734.4000244
1412.918946	737.4000244
1413.447167	735.5999756
1413.975333	733.4000244
1414.503444	733.5999756
1415.031499	735.2000122
1415.559499	744.5999756
1416.087444	737.4000244
1416.615333	737.0
1417.143167	733.2000122
1417.670947	732.5999756
1418.19867	736.4000244
1418.726339	733.0
1419.253952	737.2000122
1419.781511	733.2000122
1420.309014	734.5999756
1420.836461	733.7999878
1421.363854	730.4000244
1421.891191	725.0
1422.418474	730.7999878
1422.945701	739.2000122
1423.472872	731.2000122
1423.999989	732.5999756
1424.52705	728.5999756
1425.054057	729.5999756
1425.581008	735.2000122
1426.107904	735.7999878
1426.634745	739.2000122
1427.16153	738.7999878
1427.688261	737.4000244
1428.214936	732.5999756
1428.741556	731.0
1429.268121	738.0
1429.794631	730.7999878
1430.321085	733.2000122
1430.847485	734.7999878
1431.373829	733.4000244
1431.900118	733.5999756
1432.426353	728.5999756
1432.952532	731.5999756
1433.478655	737.4000244
1434.004724	732.4000244
1434.530738	734.2000122
1435.056696	731.2000122
1435.5826	728.5999756
1436.108448	738.4000244
1436.634241	729.5999756
1437.159979	733.5999756
1437.685662	735.2000122
1438.21129	731.7999878
1438.736863	731.5999756
1439.262381	732.7999878
1439.787843	736.7999878
1440.313251	730.5999756
1440.838603	735.0
1441.3639	731.7999878
1441.889143	732.7999878
1442.41433	735.5999756
1442.939462	730.2000122
1443.464539	727.4000244
1443.989561	732.2000122
1444.514528	733.7999878
1445.03944	734.5999756
1445.564297	735.5999756
1446.089099	732.7999878
1446.613846	732.4000244
1447.138537	731.0
1447.663174	733.2000122
1448.187756	734.0
1448.712282	728.2000122
1449.236754	736.2000122
1449.761171	728.5999756
1450.285532	733.7999878
1450.809839	734.5999756
1451.33409	731.4000244
1451.858287	730.2000122
1452.382428	729.0
1452.906515	728.7999878
1453.430546	733.2000122
1453.954523	733.4000244
1454.478444	730.0
1455.002311	730.0
1455.526123	730.2000122
1456.049879	729.4000244
1456.573581	729.5999756
1457.097227	730.2000122
1457.620819	727.4000244
1458.144356	730.4000244
1458.667837	731.7999878
1459.191264	734.7999878
1459.714636	727.0
1460.237952	730.0
1460.761214	732.0
1461.284421	729.7999878
1461.807573	731.2000122
1462.33067	730.0
1462.853712	731.0
1463.376699	729.7999878
1463.899632	730.2000122
1464.422509	729.5999756
1464.945331	726.2000122
1465.468099	726.4000244
1465.990811	733.4000244
1466.513469	727.2000122
1467.036071	730.5999756
1467.558619	729.7999878
1468.081112	733.0
1468.60355	729.0
1469.125933	729.4000244
1469.648261	726.2000122
1470.170534	732.4000244
1470.692752	729.7999878
1471.214916	732.0
1471.737024	726.7999878
1472.259078	725.2000122
1472.781077	734.0
1473.303021	729.4000244
1473.82491	732.2000122
1474.346744	736.7999878
1474.868523	730.2000122
1475.390248	728.5999756
1475.911917	731.2000122
1476.433532	730.7999878
1476.955092	736.5999756
1477.476597	731.4000244
1477.998047	728.4000244
1478.519442	727.7999878
1479.040783	729.4000244
1479.562068	728.5999756
1480.083299	728.0
1480.604475	730.2000122
1481.125596	728.4000244
1481.646663	730.0
1482.167674	733.5999756
1482.688631	732.5999756
1483.209533	729.7999878
1483.73038	728.5999756
1484.251172	726.5999756
1484.771909	730.2000122
1485.292592	728.2000122
1485.81322	731.0
1486.333793	730.4000244
1486.854311	730.5999756
1487.374775	732.0
1487.895183	725.4000244
1488.415537	728.0
1488.935836	732.0
1489.456081	733.2000122
1489.97627	731.4000244
1490.496405	728.7999878
1491.016485	731.7999878
1491.536511	730.4000244
1492.056481	724.5999756
1492.576397	728.4000244
1493.096258	728.0
1493.616064	731.7999878
1494.135816	732.2000122
1494.655513	724.7999878
1495.175155	728.7999878
1495.694742	729.7999878
1496.214274	730.7999878
1496.733752	731.2000122
1497.253175	736.0
1497.772544	725.4000244
1498.291858	728.7999878
1498.811116	730.5999756
1499.330321	726.5999756
1499.84947	734.4000244
1500.368565	726.7999878
1500.887605	726.5999756
1501.406591	728.4000244
1501.925521	730.0
1502.444397	729.7999878
1502.963219	722.4000244
1503.481985	727.5999756
1504.000697	729.5999756
1504.519355	728.0
1505.037957	729.0
1505.556505	731.2000122
1506.074999	727.2000122
1506.593437	728.4000244
1507.111821	728.0
1507.63015	730.2000122
1508.148425	724.5999756
1508.666645	724.2000122
1509.18481	729.5999756
1509.702921	725.2000122
1510.220977	730.0
1510.738979	733.7999878
1511.256925	728.7999878
1511.774817	726.7999878
1512.292655	728.0
1512.810438	726.2000122
1513.328166	728.5999756
1513.84584	729.2000122
1514.363459	725.4000244
1514.881023	729.5999756
1515.398533	723.5999756
1515.915988	725.4000244
1516.433389	729.2000122
1516.950734	726.0
1517.468026	730.7999878
1517.985263	728.4000244
1518.502445	724.7999878
1519.019572	730.7999878
1519.536645	727.4000244
1520.053664	723.7999878
1520.570628	728.0
1521.087537	727.7999878
1521.604392	732.0
1522.121192	726.5999756
1522.637937	726.7999878
1523.154628	728.0
1523.671265	729.4000244
1524.187847	725.5999756
1524.704374	728.7999878
1525.220847	729.7999878
1525.737265	725.4000244
1526.253629	727.7999878
1526.769938	727.0
1527.286192	722.2000122
1527.802392	724.2000122
1528.318538	725.4000244
1528.834629	723.2000122
1529.350666	726.5999756
1529.866648	728.0
1530.382575	729.5999756
1530.898448	721.7999878
1531.414266	728.2000122
1531.93003	727.0
1532.44574	725.5999756
1532.961395	729.2000122
1533.476995	724.0
1533.992541	729.0
1534.508033	729.5999756
1535.02347	721.7999878
1535.538852	728.4000244
1536.05418	725.4000244
1536.569454	728.2000122
1537.084673	724.7999878
1537.599837	721.7999878
1538.114947	723.4000244
1538.630003	724.2000122
1539.145004	730.0
1539.659951	727.0
1540.174843	728.4000244
1540.689681	725.2000122
1541.204465	727.2000122
1541.719194	725.4000244
1542.233868	729.5999756
1542.748488	725.2000122
1543.263054	727.2000122
1543.777565	725.0
1544.292022	729.2000122
1544.806424	727.5999756
1545.320772	729.2000122
1545.835066	724.5999756
1546.349305	726.7999878
1546.863489	726.7999878
1547.37762	728.0
1547.891696	727.7999878
1548.405717	726.2000122
1548.919684	723.2000122
1549.433597	728.7999878
1549.947455	726.0
1550.461259	729.7999878
1550.975009	727.7999878
1551.488704	726.7999878
1552.002345	728.4000244
1552.515931	727.5999756
1553.029463	723.7999878
1553.542941	721.5999756
1554.056364	724.7999878
1554.569733	725.4000244
1555.083048	728.0
1555.596308	723.2000122
1556.109514	724.7999878
1556.622665	729.4000244
1557.135762	724.4000244
1557.648805	728.0
1558.161794	725.7999878
1558.674728	730.0
1559.187608	732.0
1559.700433	723.4000244
1560.213205	725.5999756
1560.725921	722.4000244
1561.238584	727.5999756
1561.751192	722.2000122
1562.263746	719.0
1562.776246	725.5999756
1563.288691	724.7999878
1563.801082	727.2000122
1564.313419	730.4000244
1564.825701	731.0
1565.337929	730.0
1565.850103	727.2000122
1566.362223	726.2000122
1566.874288	721.7999878
1567.386299	727.4000244
1567.898256	725.7999878
1568.410158	726.0
1568.922007	727.0
1569.4338	724.0
1569.94554	724.2000122
1570.457226	725.5999756
1570.968857	727.5999756
1571.480434	722.0
1571.991956	726.5999756
1572.503425	729.0
1573.014839	725.0
1573.526199	729.0
1574.037505	724.5999756
1574.548756	721.5999756
1575.059953	731.7999878
1575.571096	724.4000244
1576.082185	726.0
1576.59322	727.5999756
1577.1042	728.2000122
1577.615126	726.2000122
1578.125998	727.5999756
1578.636816	725.0
1579.14758	723.5999756
1579.658289	725.0
1580.168944	725.2000122
1580.679545	723.7999878
1581.190092	725.4000244
1581.700585	726.5999756
1582.211023	720.7999878
1582.721407	723.7999878
1583.231737	723.2000122
1583.742013	725.4000244
1584.252235	724.7999878
1584.762403	725.0
1585.272516	724.0
1585.782575	716.2000122
1586.292581	729.5999756
1586.802532	725.7999878
1587.312428	724.0
1587.822271	723.2000122
1588.33206	728.0
1588.841794	724.0
1589.351474	725.7999878
1589.8611	724.5999756
1590.370672	729.4000244
1590.88019	724.4000244
1591.389654	720.7999878
1591.899064	726.2000122
