1042.452273	698.7999878
1043.018714	698.0
1043.585098	703.5999756
1044.151424	702.4000244
1044.717692	697.7999878
1045.283903	700.4000244
1045.850056	701.5999756
1046.416151	698.5999756
1046.982188	700.0
1047.548167	700.7999878
1048.114089	698.5999756
1048.679953	696.2000122
1049.24576	695.4000244
1049.811509	701.0
1050.3772	700.7999878
1050.942833	696.4000244
1051.508408	699.4000244
1052.073926	698.2000122
1052.639387	699.0
1053.204789	695.2000122
1053.770134	693.0
1054.335421	699.0
1054.900651	697.0
1055.465823	699.2000122
1056.030937	695.2000122
1056.595993	698.7999878
1057.160992	692.4000244
1057.725934	692.4000244
1058.290817	694.7999878
1058.855643	695.2000122
1059.420411	695.5999756
1059.985122	694.7999878
1060.549775	691.2000122
1061.114371	693.5999756
1061.678908	692.5999756
1062.243389	694.2000122
1062.807811	693.2000122
1063.372176	693.0
1063.936483	695.2000122
1064.500733	691.7999878
1065.064925	695.0
1065.62906	695.4000244
1066.193137	695.2000122
1066.757156	693.4000244
1067.321118	689.2000122
1067.885022	692.4000244
1068.448869	692.7999878
1069.012658	693.0
1069.57639	690.2000122
1070.140063	695.7999878
1070.70368	690.2000122
1071.267239	691.0
1071.83074	687.4000244
1072.394184	693.2000122
1072.95757	695.2000122
1073.520899	690.7999878
1074.08417	695.5999756
1074.647383	692.0
1075.21054	695.2000122
1075.773638	689.5999756
1076.336679	691.4000244
1076.899663	689.7999878
1077.462589	693.5999756
1078.025457	689.2000122
1078.588268	688.7999878
1079.151022	689.7999878
1079.713718	687.5999756
1080.276356	689.0
1080.838937	691.0
1081.401461	691.5999756
1081.963927	689.0
1082.526336	697.4000244
1083.088687	690.4000244
1083.650981	691.2000122
1084.213217	686.7999878
1084.775396	689.2000122
1085.337517	688.7999878
1085.899581	692.7999878
1086.461587	689.2000122
1087.023536	689.2000122
1087.585428	693.5999756
1088.147262	688.0
1088.709039	689.5999756
1089.270758	689.2000122
1089.83242	691.0
1090.394024	687.7999878
1090.955571	690.0
1091.517061	688.7999878
1092.078493	689.5999756
1092.639868	688.0
1093.201185	689.4000244
1093.762445	685.5999756
1094.323648	688.2000122
1094.884793	685.7999878
1095.445881	689.4000244
1096.006911	686.2000122
1096.567884	692.5999756
1097.1288	693.7999878
1097.689659	690.4000244
1098.25046	686.7999878
1098.811203	690.4000244
1099.37189	690.2000122
1099.932518	684.5999756
1100.49309	687.5999756
1101.053604	685.5999756
1101.614061	688.2000122
1102.174461	685.2000122
1102.734803	685.5999756
1103.295088	685.0
1103.855316	688.0
1104.415486	688.7999878
1104.975599	687.5999756
1105.535655	687.0
1106.095653	686.5999756
1106.655594	685.2000122
1107.215478	689.0
1107.775305	689.0
1108.335074	687.2000122
1108.894786	682.7999878
1109.45444	689.0
1110.014038	688.2000122
1110.573578	688.5999756
1111.133061	682.4000244
1111.692486	686.5999756
1112.251854	687.7999878
1112.811165	686.5999756
1113.370419	682.0
1113.929616	683.2000122
1114.488755	687.7999878
1115.047837	691.2000122
1115.606862	683.7999878
1116.16583	685.2000122
1116.72474	686.2000122
1117.283593	686.4000244
1117.842389	682.5999756
1118.401128	683.7999878
1118.959809	684.4000244
1119.518433	687.5999756
1120.077	687.5999756
1120.63551	687.7999878
1121.193963	684.4000244
1121.752358	684.7999878
1122.310697	684.7999878
1122.868978	687.2000122
1123.427202	686.7999878
1123.985368	685.5999756
1124.543478	685.2000122
1125.10153	682.2000122
1125.659526	682.5999756
1126.217464	683.4000244
1126.775345	685.0
1127.333168	683.5999756
1127.890935	686.5999756
1128.448644	683.4000244
1129.006297	686.2000122
1129.563892	685.7999878
1130.12143	682.2000122
1130.678911	684.4000244
1131.236335	682.5999756
1131.793701	686.7999878
1132.351011	681.5999756
1132.908263	685.0
1133.465458	682.7999878
1134.022597	684.7999878
1134.579678	684.7999878
1135.136702	682.7999878
1135.693669	681.2000122
1136.250578	684.0
1136.807431	684.7999878
1137.364227	681.4000244
1137.920965	687.7999878
1138.477647	681.7999878
1139.034271	684.4000244
1139.590839	681.7999878
1140.147349	682.0
1140.703802	684.0
1141.260198	681.2000122
1141.816537	685.7999878
1142.37282	685.5999756
1142.929045	681.4000244
1143.485213	685.4000244
1144.041323	683.2000122
1144.597377	684.5999756
1145.153374	682.2000122
1145.709314	685.5999756
1146.265197	683.4000244
1146.821023	684.0
1147.376792	684.5999756
1147.932503	681.0
1148.488158	687.0
1149.043756	682.5999756
1149.599297	683.2000122
1150.154781	683.2000122
1150.710207	685.0
1151.265577	688.4000244
1151.82089	686.5999756
1152.376146	683.5999756
1152.931345	685.5999756
1153.486487	684.2000122
1154.041572	682.7999878
1154.5966	685.7999878
1155.151571	682.2000122
1155.706485	690.0
1156.261342	682.4000244
1156.816142	684.7999878
1157.370885	686.5999756
1157.925572	680.4000244
1158.480201	685.2000122
1159.034774	684.2000122
1159.589289	683.2000122
1160.143748	685.4000244
1160.698149	684.0
1161.252494	685.7999878
1161.806782	683.5999756
1162.361013	681.0
1162.915187	684.5999756
1163.469304	683.2000122
1164.023364	684.0
1164.577368	684.5999756
1165.131314	686.0
1165.685204	681.2000122
1166.239036	683.7999878
1166.792812	685.0
1167.346531	685.2000122
1167.900193	682.4000244
1168.453798	684.4000244
1169.007347	681.2000122
1169.560838	687.7999878
1170.114273	683.7999878
1170.66765	686.4000244
1171.220971	682.5999756
1171.774235	684.0
1172.327443	683.7999878
1172.880593	680.5999756
1173.433687	683.0
1173.986723	682.0
1174.539703	686.7999878
1175.092626	678.5999756
1175.645493	680.2000122
1176.198302	683.2000122
1176.751055	683.5999756
1177.303751	683.2000122
1177.85639	685.4000244
1178.408972	682.4000244
1178.961498	681.4000244
1179.513966	680.5999756
1180.066378	682.2000122
1180.618733	683.4000244
1181.171032	681.4000244
1181.723273	683.7999878
1182.275458	681.7999878
1182.827586	682.7999878
1183.379657	685.5999756
1183.931672	685.0
1184.48363	682.0
1185.035531	681.0
1185.587375	681.5999756
1186.139162	681.5999756
1186.690893	678.7999878
1187.242567	681.4000244
1187.794184	679.2000122
1188.345745	683.0
1188.897249	683.4000244
1189.448696	681.7999878
1190.000086	685.2000122
1190.55142	681.4000244
1191.102697	681.7999878
1191.653918	677.5999756
1192.205081	679.2000122
1192.756188	680.0
1193.858232	680.7999878
1194.409169	679.0
1194.960049	683.4000244
1195.510872	681.4000244
1196.061639	683.5999756
1196.612349	683.5999756
1197.163003	680.7999878
1197.713599	682.4000244
1198.264139	682.2000122
1198.814623	680.5999756
1199.36505	681.0
1199.91542	679.0
1200.465734	679.5999756
1201.01599	679.2000122
1201.566191	677.4000244
1202.116334	679.5999756
1202.666421	679.0
1203.216452	681.0
1203.766425	679.7999878
1204.316343	680.7999878
1204.866203	678.0
1205.416007	679.7999878
1205.965754	680.4000244
1206.515445	680.7999878
1207.065079	681.0
1207.614657	679.7999878
1208.164177	681.2000122
1208.713642	680.4000244
1209.26305	679.5999756
1209.812401	681.0
1210.361695	680.0
1210.910933	681.7999878
1211.460115	681.0
1212.00924	683.0
1212.558308	681.4000244
1213.10732	681.0
1213.656275	681.0
1214.205174	680.4000244
1214.754016	680.5999756
1215.302801	680.4000244
1215.85153	680.4000244
1216.400203	678.7999878
1216.948819	680.5999756
1217.497378	683.0
1218.045881	681.2000122
1218.594327	681.4000244
1219.142717	679.2000122
1219.691051	682.2000122
1220.239327	680.2000122
1220.787548	682.7999878
1221.335712	681.7999878
1221.883819	682.5999756
1222.43187	680.0
1222.979864	679.4000244
1223.527802	681.7999878
1224.075683	681.5999756
1224.623508	682.2000122
1225.171277	679.7999878
1225.718989	679.7999878
1226.266644	684.4000244
1226.814243	679.5999756
1227.361786	683.4000244
1227.909272	681.5999756
1228.456702	677.7999878
1229.004075	681.7999878
1229.551392	682.4000244
1230.098652	681.0
1230.645856	678.5999756
1231.193003	684.5999756
1231.740094	683.5999756
1232.287129	683.5999756
1232.834107	684.4000244
1233.381029	678.4000244
1233.927894	678.0
1234.474703	681.4000244
1235.021455	681.7999878
1235.568151	680.0
1236.114791	681.7999878
1236.661374	680.2000122
1237.207901	678.2000122
1237.754372	680.4000244
1238.300786	678.0
1238.847144	681.2000122
1239.393445	679.5999756
1239.93969	682.7999878
1240.485879	684.2000122
1241.032011	682.4000244
1241.578087	678.5999756
1242.124106	679.4000244
1242.67007	685.4000244
1243.215976	682.0
1243.761827	685.7999878
1244.307621	679.2000122
1244.853359	677.5999756
1245.39904	682.2000122
1245.944665	684.4000244
1246.490234	683.5999756
1247.035746	680.7999878
1247.581203	681.7999878
1248.126602	680.4000244
1248.671946	678.2000122
1249.217233	681.5999756
1249.762464	677.2000122
1250.307638	682.0
1250.852757	682.0
1251.397819	685.0
1251.942824	678.4000244
1252.487774	681.5999756
1253.032667	680.4000244
1253.577503	679.7999878
1254.122284	679.7999878
1254.667008	681.5999756
1255.211676	681.7999878
1255.756288	676.2000122
1256.300843	679.4000244
1256.845342	682.0
1257.389785	682.2000122
1257.934172	680.4000244
1258.478502	681.4000244
1259.022776	678.4000244
1259.566994	680.5999756
1260.111156	695.4000244
1260.655261	680.5999756
1261.199311	680.7999878
1261.743304	681.7999878
1262.28724	681.5999756
1262.831121	680.7999878
1263.374945	685.2000122
1263.918713	683.5999756
1264.462425	682.2000122
1265.006081	691.0
1265.54968	698.4000244
1266.093223	693.4000244
1266.636711	684.4000244
1267.180141	682.5999756
1267.723516	683.2000122
1268.266835	679.5999756
1268.810097	685.4000244
1269.353303	681.5999756
1269.896453	681.0
1270.439547	682.0
1270.982584	678.5999756
1271.525566	680.4000244
1272.068491	678.5999756
1272.61136	680.0
1273.154173	682.4000244
1273.69693	683.0
1274.239631	682.7999878
1274.782275	682.0
1275.324864	680.5999756
1275.867396	679.5999756
1276.409872	679.7999878
1276.952292	680.0
1277.494656	679.0
1278.036964	681.0
1278.579215	679.5999756
1279.121411	677.7999878
1279.66355	678.2000122
1280.205634	680.5999756
1280.747661	680.7999878
1281.289632	678.5999756
1281.831547	682.7999878
1282.373406	681.7999878
1282.915209	682.5999756
1283.456955	684.4000244
1283.998646	685.5999756
1284.540281	693.2000122
1285.081859	707.0
1285.623381	814.5999756
1286.164848	954.5999756
1286.706258	777.4000244
1287.247612	697.7999878
1287.788911	687.5999756
1288.330153	686.5999756
1288.871339	680.5999756
1289.412469	682.2000122
1289.953543	681.4000244
1290.494561	683.4000244
1291.035523	682.0
1291.576428	680.5999756
1292.117278	680.5999756
1292.658072	680.5999756
1293.19881	680.5999756
1293.739492	680.0
1294.280118	681.2000122
1294.820687	679.4000244
1295.361201	680.0
1295.901659	681.4000244
1296.442061	680.2000122
1296.982406	683.7999878
1297.522696	681.0
1298.06293	678.2000122
1298.603108	677.0
1299.143229	682.7999878
1299.683295	678.0
1300.223305	679.4000244
1300.763259	680.4000244
1301.303157	682.2000122
1301.842999	679.2000122
1302.382785	681.5999756
1302.922515	680.7999878
1303.462189	683.7999878
1304.001807	678.4000244
1304.541369	678.5999756
1305.080875	677.5999756
1305.620326	682.2000122
1306.15972	683.5999756
1306.699058	683.2000122
1307.238341	679.4000244
1307.777567	681.7999878
1308.316738	680.5999756
1308.855853	681.4000244
1309.394912	680.7999878
1309.933915	681.4000244
1310.472862	678.0
1311.011753	678.5999756
1311.550588	681.0
1312.089367	680.2000122
1312.62809	681.5999756
1313.166758	678.2000122
1313.70537	682.0
1314.243925	679.7999878
1314.782425	677.4000244
1315.320869	680.4000244
1315.859257	685.7999878
1316.397589	679.2000122
1316.935866	684.4000244
1317.474086	681.4000244
1318.012251	680.2000122
1318.55036	679.4000244
1319.088413	683.0
1319.62641	680.0
1320.164351	684.5999756
1320.702236	681.2000122
1321.240066	679.4000244
1321.777839	677.4000244
1322.315557	677.7999878
1322.853219	682.2000122
1323.390826	683.5999756
1323.928376	686.2000122
1324.465871	683.0
1325.003309	683.4000244
1325.540692	679.7999878
1326.07802	681.7999878
1326.615291	678.5999756
1327.152506	679.0
1327.689666	680.7999878
1328.22677	680.7999878
1328.763818	679.0
1329.300811	679.0
1329.837747	677.2000122
1330.374628	678.4000244
1330.911453	683.5999756
1331.448222	681.2000122
1331.984936	678.7999878
1332.521594	680.5999756
1333.058196	681.2000122
1333.594742	681.7999878
1334.131232	680.5999756
1334.667667	678.2000122
1335.204046	680.0
1335.740369	678.5999756
1336.276637	681.4000244
1336.812848	680.2000122
1337.349004	676.5999756
1337.885105	679.7999878
1338.421149	678.2000122
1338.957138	679.4000244
1339.493071	679.0
1340.028949	681.7999878
1340.56477	682.2000122
1341.100536	680.4000244
1341.636246	682.0
1342.171901	681.5999756
1342.7075	677.7999878
1343.243043	682.4000244
1343.77853	680.0
1344.313962	678.4000244
1344.849338	681.7999878
1345.384659	680.2000122
1345.919923	679.5999756
1346.455133	681.4000244
1346.990286	683.2000122
1347.525384	680.7999878
1348.060426	679.4000244
1348.595412	679.4000244
1349.130343	679.0
1349.665218	680.4000244
1350.200037	682.2000122
1350.734801	681.0
1351.269509	682.7999878
1351.804162	682.7999878
1352.338758	681.4000244
1352.8733	681.5999756
1353.407785	680.2000122
1353.942215	678.0
1354.476589	679.2000122
1355.010908	680.2000122
1355.545171	680.4000244
1356.079379	678.0
1356.61353	679.7999878
1357.147627	681.7999878
1357.681667	680.0
1358.215652	682.0
1358.749582	681.4000244
1359.283456	679.7999878
1359.817274	680.7999878
1360.351037	681.0
1360.884744	681.4000244
1361.418395	678.7999878
1361.951991	679.4000244
1362.485531	677.7999878
1363.019016	680.5999756
1363.552445	683.7999878
1364.085819	678.2000122
1364.619137	678.2000122
1365.1524	679.0
1365.685607	680.4000244
1366.218758	683.5999756
1366.751854	680.4000244
1367.284894	679.7999878
1367.817879	679.7999878
1368.350808	680.2000122
1368.883682	680.0
1369.4165	680.4000244
1369.949263	678.4000244
1370.48197	683.4000244
1371.014622	686.7999878
1371.547218	680.5999756
1372.079758	680.2000122
1372.612244	680.4000244
1373.144673	678.5999756
1373.677047	679.0
1374.209366	680.7999878
1374.741629	679.4000244
1375.273836	678.2000122
1375.805989	680.5999756
1376.338085	679.5999756
1376.870126	675.7999878
1377.402112	680.2000122
1377.934042	677.0
1378.465917	677.5999756
1378.997736	684.2000122
1379.5295	680.4000244
1380.061208	682.4000244
1380.592861	683.4000244
1381.124459	682.2000122
1381.656	683.5999756
1382.187487	679.2000122
1382.718918	681.4000244
1383.250294	681.4000244
1383.781614	683.5999756
1384.312879	683.2000122
1384.844088	686.0
1385.375242	682.2000122
1385.90634	682.4000244
1386.437383	686.5999756
1386.968371	688.5999756
1387.499303	687.5999756
1388.03018	699.7999878
1388.561001	776.7999878
1389.091767	1108.0
1389.622478	970.5999756
1390.153133	724.5999756
1390.683733	690.2000122
1391.214277	687.4000244
1391.744766	684.2000122
1392.2752	681.7999878
1392.805578	683.0
1393.335901	682.0
1393.866168	683.2000122
1394.396381	679.4000244
1394.926537	678.2000122
1395.456639	682.2000122
1395.986685	685.5999756
1396.516675	681.0
1397.046611	681.0
1397.576491	683.0
1398.106315	682.7999878
1398.636084	681.7999878
1399.165798	680.5999756
1399.695457	678.5999756
1400.22506	683.2000122
1400.754608	680.0
1401.284101	679.0
1401.813538	680.0
1402.34292	676.2000122
1402.872247	679.4000244
1403.401518	681.2000122
1403.930734	679.4000244
1404.459895	678.2000122
1404.989	679.7999878
1405.51805	682.5999756
1406.047045	680.5999756
1406.575984	678.4000244
1407.104869	681.0
1407.633697	678.7999878
1408.162471	681.4000244
1408.691189	683.2000122
1409.219852	681.0
1409.74846	688.4000244
1410.277013	708.4000244
1410.80551	710.5999756
1411.333952	691.2000122
1411.862339	683.5999756
1412.39067	682.4000244
1412.918946	681.5999756
1413.447167	682.0
1413.975333	681.5999756
1414.503444	680.2000122
1415.031499	676.7999878
1415.559499	690.7999878
1416.087444	681.0
1416.615333	678.7999878
1417.143167	680.4000244
1417.670947	681.4000244
1418.19867	682.2000122
1418.726339	679.4000244
1419.253952	678.4000244
1419.781511	679.7999878
1420.309014	681.5999756
1420.836461	679.0
1421.363854	680.4000244
1421.891191	681.4000244
1422.418474	678.5999756
1422.945701	678.0
1423.472872	679.2000122
1423.999989	679.2000122
1424.52705	677.7999878
1425.054057	681.5999756
1425.581008	681.2000122
1426.107904	681.7999878
1426.634745	681.7999878
1427.16153	680.4000244
1427.688261	680.7999878
1428.214936	680.5999756
1428.741556	678.5999756
1429.268121	681.4000244
1429.794631	679.0
1430.321085	682.7999878
1430.847485	679.5999756
1431.373829	683.4000244
1431.900118	680.4000244
1432.426353	680.5999756
1432.952532	678.5999756
1433.478655	678.7999878
1434.004724	678.5999756
1434.530738	677.7999878
1435.056696	677.5999756
1435.5826	679.4000244
1436.108448	681.2000122
1436.634241	681.4000244
1437.159979	681.5999756
1437.685662	680.7999878
1438.21129	677.5999756
1438.736863	679.7999878
1439.262381	681.5999756
1439.787843	681.7999878
1440.313251	679.4000244
1440.838603	679.5999756
1441.3639	679.7999878
1441.889143	681.7999878
1442.41433	682.7999878
1442.939462	676.5999756
1443.464539	678.4000244
1443.989561	678.4000244
1444.514528	679.2000122
1445.03944	679.5999756
1445.564297	680.4000244
1446.089099	678.5999756
1446.613846	680.7999878
1447.138537	681.2000122
1447.663174	681.5999756
1448.187756	679.0
1448.712282	678.2000122
1449.236754	679.7999878
1449.761171	679.5999756
1450.285532	678.7999878
1450.809839	682.5999756
1451.33409	679.7999878
1451.858287	682.2000122
1452.382428	680.5999756
1452.906515	682.5999756
1453.430546	679.4000244
1453.954523	677.0
1454.478444	682.0
1455.002311	682.0
1455.526123	679.7999878
1456.049879	679.5999756
1456.573581	682.5999756
1457.097227	680.4000244
1457.620819	678.7999878
1458.144356	678.4000244
1458.667837	681.2000122
1459.191264	682.0
1459.714636	681.5999756
1460.237952	681.4000244
1460.761214	678.5999756
1461.284421	679.2000122
1461.807573	679.2000122
1462.33067	682.7999878
1462.853712	681.4000244
1463.376699	678.7999878
1463.899632	679.2000122
1464.422509	678.4000244
1464.945331	676.5999756
1465.468099	675.0
1465.990811	681.2000122
1466.513469	678.7999878
1467.036071	680.4000244
1467.558619	679.7999878
1468.081112	681.5999756
1468.60355	677.0
1469.125933	678.7999878
1469.648261	676.7999878
1470.170534	681.5999756
1470.692752	683.0
1471.214916	680.2000122
1471.737024	678.4000244
1472.259078	680.7999878
1472.781077	675.0
1473.303021	677.4000244
1473.82491	679.0
1474.346744	680.5999756
1474.868523	675.4000244
1475.390248	678.2000122
1475.911917	678.2000122
1476.433532	678.7999878
1476.955092	677.5999756
1477.476597	681.0
1477.998047	681.4000244
1478.519442	678.4000244
1479.040783	677.7999878
1479.562068	678.2000122
1480.083299	680.4000244
1480.604475	680.4000244
1481.125596	680.2000122
1481.646663	681.7999878
1482.167674	678.7999878
1482.688631	677.5999756
1483.209533	680.2000122
1483.73038	676.7999878
1484.251172	677.5999756
1484.771909	677.4000244
1485.292592	678.2000122
1485.81322	678.5999756
1486.333793	677.4000244
1486.854311	680.5999756
1487.374775	678.4000244
1487.895183	677.5999756
1488.415537	680.2000122
1488.935836	676.5999756
1489.456081	677.4000244
1489.97627	681.0
1490.496405	680.5999756
1491.016485	678.4000244
1491.536511	677.5999756
1492.056481	679.4000244
1492.576397	679.2000122
1493.096258	678.0
1493.616064	678.4000244
1494.135816	681.5999756
1494.655513	680.7999878
1495.175155	676.5999756
1495.694742	678.4000244
1496.214274	680.5999756
1496.733752	679.0
1497.253175	682.7999878
1497.772544	677.0
1498.291858	679.7999878
1498.811116	676.2000122
1499.330321	676.0
1499.84947	684.5999756
1500.368565	678.4000244
1500.887605	676.2000122
1501.406591	677.4000244
1501.925521	680.2000122
1502.444397	677.2000122
1502.963219	679.2000122
1503.481985	677.7999878
1504.000697	676.4000244
1504.519355	680.2000122
1505.037957	676.2000122
1505.556505	677.5999756
1506.074999	678.2000122
1506.593437	679.7999878
1507.111821	676.5999756
1507.63015	679.4000244
1508.148425	678.5999756
1508.666645	676.0
1509.18481	678.0
1509.702921	676.0
1510.220977	679.2000122
1510.738979	686.0
1511.256925	680.7999878
1511.774817	677.2000122
1512.292655	679.7999878
1512.810438	677.5999756
1513.328166	678.5999756
1513.84584	679.2000122
1514.363459	679.2000122
1514.881023	677.5999756
1515.398533	677.5999756
1515.915988	676.5999756
1516.433389	678.7999878
1516.950734	681.0
1517.468026	679.7999878
1517.985263	678.4000244
1518.502445	679.5999756
1519.019572	678.2000122
1519.536645	679.2000122
1520.053664	679.0
1520.570628	679.0
1521.087537	679.5999756
1521.604392	678.2000122
1522.121192	678.0
1522.637937	678.5999756
1523.154628	679.5999756
1523.671265	681.5999756
1524.187847	677.5999756
1524.704374	677.7999878
1525.220847	680.5999756
1525.737265	679.0
1526.253629	681.2000122
1526.769938	678.2000122
1527.286192	675.5999756
1527.802392	678.2000122
1528.318538	680.2000122
1528.834629	679.0
1529.350666	678.2000122
1529.866648	674.7999878
1530.382575	680.7999878
1530.898448	676.4000244
1531.414266	681.7999878
1531.93003	680.4000244
1532.44574	680.0
1532.961395	679.4000244
1533.476995	679.0
1533.992541	678.4000244
1534.508033	677.2000122
1535.02347	681.5999756
1535.538852	677.4000244
1536.05418	680.4000244
1536.569454	680.2000122
1537.084673	680.4000244
1537.599837	677.5999756
1538.114947	679.5999756
1538.630003	678.2000122
1539.145004	680.4000244
1539.659951	679.7999878
1540.174843	679.5999756
1540.689681	678.7999878
1541.204465	680.7999878
1541.719194	680.2000122
1542.233868	678.5999756
1542.748488	678.7999878
1543.263054	678.5999756
1543.777565	677.5999756
1544.292022	678.7999878
1544.806424	678.7999878
1545.320772	676.7999878
1545.835066	677.4000244
1546.349305	679.7999878
1546.863489	681.2000122
1547.37762	680.7999878
1547.891696	679.5999756
1548.405717	680.2000122
1548.919684	679.0
1549.433597	677.7999878
1549.947455	678.5999756
1550.461259	680.7999878
1550.975009	675.0
1551.488704	679.5999756
1552.002345	680.7999878
1552.515931	675.7999878
1553.029463	679.0
1553.542941	675.7999878
1554.056364	678.7999878
1554.569733	676.7999878
1555.083048	681.0
1555.596308	677.2000122
1556.109514	677.4000244
1556.622665	682.5999756
1557.135762	679.4000244
1557.648805	677.4000244
1558.161794	681.2000122
1558.674728	681.5999756
1559.187608	678.0
1559.700433	679.7999878
1560.213205	677.7999878
1560.725921	675.7999878
1561.238584	679.4000244
1561.751192	677.5999756
1562.263746	680.0
1562.776246	679.2000122
1563.288691	680.2000122
1563.801082	679.2000122
1564.313419	681.7999878
1564.825701	680.0
1565.337929	678.7999878
1565.850103	679.2000122
1566.362223	679.5999756
1566.874288	683.7999878
1567.386299	677.4000244
1567.898256	678.7999878
1568.410158	681.2000122
1568.922007	681.0
1569.4338	679.2000122
1569.94554	678.0
1570.457226	678.7999878
1570.968857	677.5999756
1571.480434	677.5999756
1571.991956	678.5999756
1572.503425	683.4000244
1573.014839	678.5999756
1573.526199	678.4000244
1574.037505	678.5999756
1574.548756	675.7999878
1575.059953	679.7999878
1575.571096	679.2000122
1576.082185	678.4000244
1576.59322	678.7999878
1577.1042	679.5999756
1577.615126	676.4000244
1578.125998	675.2000122
1578.636816	679.4000244
1579.14758	678.4000244
1579.658289	679.4000244
1580.168944	678.7999878
1580.679545	676.7999878
1581.190092	679.2000122
1581.700585	678.0
1582.211023	680.5999756
1582.721407	678.7999878
1583.231737	678.5999756
1583.742013	677.4000244
1584.252235	678.7999878
1584.762403	677.2000122
1585.272516	680.5999756
1585.782575	678.5999756
1586.292581	676.7999878
1586.802532	679.0
1587.312428	679.4000244
1587.822271	678.5999756
1588.33206	676.4000244
1588.841794	679.5999756
1589.351474	677.2000122
1589.8611	676.5999756
1590.370672	679.7999878
1590.88019	682.0
1591.389654	677.2000122
1591.899064	676.2000122
1592.408419	678.5999756
