1042.452273	689.0
1043.018714	685.5999756
1043.585098	684.5999756
1044.151424	686.0
1044.717692	685.7999878
1045.283903	682.4000244
1045.850056	686.7999878
1046.416151	681.0
1046.982188	682.4000244
1047.548167	680.7999878
1048.114089	681.4000244
1048.679953	678.7999878
1049.24576	680.7999878
1049.811509	681.0
1050.3772	680.2000122
1050.942833	683.2000122
1051.508408	682.5999756
1052.073926	681.7999878
1052.639387	680.7999878
1053.204789	680.2000122
1053.770134	677.4000244
1054.335421	678.4000244
1054.900651	680.2000122
1055.465823	682.5999756
1056.030937	680.4000244
1056.595993	678.5999756
1057.160992	680.0
1057.725934	679.0
1058.290817	677.2000122
1058.855643	682.4000244
1059.420411	681.5999756
1059.985122	682.2000122
1060.549775	681.2000122
1061.114371	677.2000122
1061.678908	678.0
1062.243389	676.4000244
1062.807811	680.5999756
1063.372176	680.7999878
1063.936483	678.4000244
1064.500733	679.7999878
1065.064925	679.2000122
1065.62906	678.4000244
1066.193137	676.0
1066.757156	677.2000122
1067.321118	681.2000122
1067.885022	675.4000244
1068.448869	676.0
1069.012658	676.5999756
1069.57639	677.2000122
1070.140063	683.0
1070.70368	679.0
1071.267239	675.7999878
1071.83074	676.2000122
1072.394184	678.0
1072.95757	678.5999756
1073.520899	677.2000122
1074.08417	678.0
1074.647383	675.5999756
1075.21054	675.5999756
1075.773638	673.2000122
1076.336679	677.2000122
1076.899663	680.0
1077.462589	677.5999756
1078.025457	675.4000244
1078.588268	676.2000122
1079.151022	677.2000122
1079.713718	677.5999756
1080.276356	674.7999878
1080.838937	676.7999878
1081.401461	672.0
1081.963927	675.2000122
1082.526336	676.2000122
1083.088687	675.5999756
1083.650981	678.7999878
1084.213217	676.7999878
1084.775396	676.0
1085.337517	675.0
1085.899581	675.5999756
1086.461587	675.5999756
1087.023536	675.5999756
1087.585428	678.4000244
1088.147262	673.0
1088.709039	672.7999878
1089.270758	675.4000244
1089.83242	675.0
1090.394024	674.4000244
1090.955571	678.4000244
1091.517061	675.4000244
1092.078493	674.5999756
1092.639868	673.5999756
1093.201185	673.2000122
1093.762445	676.2000122
1094.323648	674.4000244
1094.884793	675.2000122
1095.445881	675.2000122
1096.006911	675.5999756
1096.567884	674.5999756
1097.1288	681.0
1097.689659	676.2000122
1098.25046	672.0
1098.811203	676.4000244
1099.37189	675.0
1099.932518	676.4000244
1100.49309	673.4000244
1101.053604	672.0
1101.614061	675.4000244
1102.174461	675.2000122
1102.734803	674.2000122
1103.295088	675.4000244
1103.855316	676.7999878
1104.415486	674.4000244
1104.975599	675.7999878
1105.535655	671.0
1106.095653	675.0
1106.655594	676.2000122
1107.215478	677.7999878
1107.775305	673.5999756
1108.335074	673.5999756
1108.894786	678.7999878
1109.45444	677.4000244
1110.014038	673.0
1110.573578	678.0
1111.133061	671.2000122
1111.692486	670.5999756
1112.251854	675.4000244
1112.811165	674.4000244
1113.370419	674.7999878
1113.929616	671.7999878
1114.488755	672.7999878
1115.047837	670.7999878
1115.606862	672.5999756
1116.16583	674.5999756
1116.72474	673.4000244
1117.283593	675.0
1117.842389	675.2000122
1118.401128	674.5999756
1118.959809	671.5999756
1119.518433	672.7999878
1120.077	674.4000244
1120.63551	672.5999756
1121.193963	674.4000244
1121.752358	670.7999878
1122.310697	673.7999878
1122.868978	676.7999878
1123.427202	673.7999878
1123.985368	671.2000122
1124.543478	674.0
1125.10153	673.4000244
1125.659526	674.0
1126.217464	673.0
1126.775345	674.0
1127.333168	673.4000244
1127.890935	671.5999756
1128.448644	672.5999756
1129.006297	674.0
1129.563892	671.7999878
1130.12143	673.7999878
1130.678911	668.0
1131.236335	671.7999878
1131.793701	671.7999878
1132.351011	669.5999756
1132.908263	670.5999756
1133.465458	674.2000122
1134.022597	673.4000244
1134.579678	674.2000122
1135.136702	672.7999878
1135.693669	676.4000244
1136.250578	675.2000122
1136.807431	675.0
1137.364227	673.4000244
1137.920965	675.2000122
1138.477647	673.2000122
1139.034271	675.4000244
1139.590839	675.0
1140.147349	674.2000122
1140.703802	671.5999756
1141.260198	671.5999756
1141.816537	671.2000122
1142.37282	672.2000122
1142.929045	673.2000122
1143.485213	672.7999878
1144.041323	674.0
1144.597377	675.0
1145.153374	670.7999878
1145.709314	674.0
1146.265197	671.4000244
1146.821023	672.4000244
1147.376792	674.2000122
1147.932503	674.7999878
1148.488158	671.4000244
1149.043756	673.2000122
1149.599297	671.4000244
1150.154781	670.7999878
1150.710207	673.4000244
1151.265577	674.2000122
1151.82089	670.5999756
1152.376146	672.2000122
1152.931345	671.2000122
1153.486487	673.5999756
1154.041572	674.0
1154.5966	674.2000122
1155.151571	673.5999756
1155.706485	673.7999878
1156.261342	673.4000244
1156.816142	674.2000122
1157.370885	671.7999878
1157.925572	676.5999756
1158.480201	673.2000122
1159.034774	675.4000244
1159.589289	673.2000122
1160.143748	674.5999756
1160.698149	671.7999878
1161.252494	669.7999878
1161.806782	675.0
1162.361013	675.2000122
1162.915187	671.2000122
1163.469304	676.0
1164.023364	673.4000244
1164.577368	671.5999756
1165.131314	669.0
1165.685204	669.2000122
1166.239036	672.5999756
1166.792812	670.5999756
1167.346531	672.2000122
1167.900193	672.7999878
1168.453798	673.5999756
1169.007347	675.4000244
1169.560838	670.5999756
1170.114273	674.4000244
1170.66765	671.5999756
1171.220971	670.7999878
1171.774235	678.0
1172.327443	671.7999878
1172.880593	670.0
1173.433687	674.4000244
1173.986723	674.0
1174.539703	673.0
1175.092626	672.0
1175.645493	672.7999878
1176.198302	673.7999878
1176.751055	673.5999756
1177.303751	669.4000244
1177.85639	671.2000122
1178.408972	670.4000244
1178.961498	674.7999878
1179.513966	671.4000244
1180.066378	675.5999756
1180.618733	668.5999756
1181.171032	671.4000244
1181.723273	670.2000122
1182.275458	668.4000244
1182.827586	673.4000244
1183.379657	670.2000122
1183.931672	671.7999878
1184.48363	673.0
1185.035531	674.4000244
1185.587375	670.7999878
1186.139162	670.7999878
1186.690893	672.7999878
1187.242567	671.4000244
1187.794184	672.0
1188.345745	673.5999756
1188.897249	670.2000122
1189.448696	673.4000244
1190.000086	669.5999756
1190.55142	670.7999878
1191.102697	668.4000244
1191.653918	675.0
1192.205081	669.0
1192.756188	671.4000244
1193.858232	672.5999756
1194.409169	670.4000244
1194.960049	673.4000244
1195.510872	670.0
1196.061639	671.4000244
1196.612349	671.2000122
1197.163003	670.5999756
1197.713599	673.2000122
1198.264139	670.0
1198.814623	669.5999756
1199.36505	673.5999756
1199.91542	672.5999756
1200.465734	671.2000122
1201.01599	671.2000122
1201.566191	674.2000122
1202.116334	672.2000122
1202.666421	672.7999878
1203.216452	672.0
1203.766425	673.4000244
1204.316343	670.7999878
1204.866203	672.4000244
1205.416007	673.2000122
1205.965754	673.0
1206.515445	671.4000244
1207.065079	674.0
1207.614657	668.7999878
1208.164177	671.7999878
1208.713642	671.7999878
1209.26305	667.5999756
1209.812401	670.4000244
1210.361695	670.4000244
1210.910933	671.5999756
1211.460115	669.5999756
1212.00924	671.2000122
1212.558308	673.0
1213.10732	670.5999756
1213.656275	668.0
1214.205174	671.7999878
1214.754016	671.2000122
1215.302801	672.2000122
1215.85153	668.4000244
1216.400203	669.0
1216.948819	671.4000244
1217.497378	671.5999756
1218.045881	672.0
1218.594327	672.0
1219.142717	669.7999878
1219.691051	670.2000122
1220.239327	674.0
1220.787548	672.2000122
1221.335712	670.5999756
1221.883819	672.7999878
1222.43187	672.2000122
1222.979864	674.0
1223.527802	672.0
1224.075683	673.0
1224.623508	672.0
1225.171277	671.5999756
1225.718989	671.7999878
1226.266644	668.4000244
1226.814243	672.2000122
1227.361786	672.0
1227.909272	669.7999878
1228.456702	671.2000122
1229.004075	670.2000122
1229.551392	672.2000122
1230.098652	671.0
1230.645856	674.4000244
1231.193003	671.2000122
1231.740094	672.4000244
1232.287129	668.7999878
1232.834107	671.0
1233.381029	669.0
1233.927894	671.0
1234.474703	672.2000122
1235.021455	670.0
1235.568151	672.2000122
1236.114791	671.5999756
1236.661374	669.0
1237.207901	670.5999756
1237.754372	673.5999756
1238.300786	669.5999756
1238.847144	668.7999878
1239.393445	672.2000122
1239.93969	672.2000122
1240.485879	672.7999878
1241.032011	670.0
1241.578087	671.7999878
1242.124106	669.7999878
1242.67007	671.7999878
1243.215976	673.2000122
1243.761827	668.7999878
1244.307621	669.2000122
1244.853359	670.4000244
1245.39904	670.5999756
1245.944665	670.4000244
1246.490234	668.2000122
1247.035746	670.5999756
1247.581203	671.5999756
1248.126602	668.0
1248.671946	668.5999756
1249.217233	671.2000122
1249.762464	668.2000122
1250.307638	667.0
1250.852757	671.4000244
1251.397819	669.4000244
1251.942824	670.0
1252.487774	672.0
1253.032667	669.0
1253.577503	669.0
1254.122284	666.5999756
1254.667008	671.2000122
1255.211676	669.4000244
1255.756288	667.7999878
1256.300843	668.5999756
1256.845342	670.5999756
1257.389785	669.0
1257.934172	667.0
1258.478502	671.7999878
1259.022776	668.2000122
1259.566994	667.5999756
1260.111156	683.7999878
1260.655261	670.7999878
1261.199311	673.0
1261.743304	670.4000244
1262.28724	669.7999878
1262.831121	667.2000122
1263.374945	672.4000244
1263.918713	669.4000244
1264.462425	668.2000122
1265.006081	672.4000244
1265.54968	674.2000122
1266.093223	672.0
1266.636711	667.4000244
1267.180141	669.0
1267.723516	670.2000122
1268.266835	670.4000244
1268.810097	671.7999878
1269.353303	669.2000122
1269.896453	670.4000244
1270.439547	666.7999878
1270.982584	666.5999756
1271.525566	669.4000244
1272.068491	668.2000122
1272.61136	671.2000122
1273.154173	669.7999878
1273.69693	666.2000122
1274.239631	669.2000122
1274.782275	668.2000122
1275.324864	669.2000122
1275.867396	669.5999756
1276.409872	670.4000244
1276.952292	670.7999878
1277.494656	669.2000122
1278.036964	665.7999878
1278.579215	668.4000244
1279.121411	670.2000122
1279.66355	670.0
1280.205634	669.2000122
1280.747661	669.7999878
1281.289632	669.2000122
1281.831547	668.4000244
1282.373406	668.7999878
1282.915209	668.5999756
1283.456955	671.7999878
1283.998646	669.0
1284.540281	665.7999878
1285.081859	674.7999878
1285.623381	686.0
1286.164848	724.2000122
1286.706258	695.7999878
1287.247612	674.5999756
1287.788911	671.0
1288.330153	668.7999878
1288.871339	668.4000244
1289.412469	670.0
1289.953543	668.2000122
1290.494561	668.5999756
1291.035523	666.2000122
1291.576428	671.2000122
1292.117278	670.4000244
1292.658072	667.7999878
1293.19881	668.7999878
1293.739492	670.2000122
1294.280118	669.2000122
1294.820687	669.7999878
1295.361201	668.4000244
1295.901659	671.0
1296.442061	667.4000244
1296.982406	670.4000244
1297.522696	671.0
1298.06293	671.4000244
1298.603108	668.5999756
1299.143229	670.4000244
1299.683295	667.7999878
1300.223305	670.0
1300.763259	669.0
1301.303157	673.4000244
1301.842999	667.2000122
1302.382785	669.0
1302.922515	671.5999756
1303.462189	668.5999756
1304.001807	668.4000244
1304.541369	666.0
1305.080875	669.2000122
1305.620326	667.4000244
1306.15972	669.7999878
1306.699058	670.4000244
1307.238341	667.2000122
1307.777567	669.5999756
1308.316738	667.4000244
1308.855853	669.5999756
1309.394912	667.4000244
1309.933915	667.5999756
1310.472862	668.2000122
1311.011753	668.5999756
1311.550588	668.4000244
1312.089367	668.0
1312.62809	668.0
1313.166758	665.5999756
1313.70537	666.4000244
1314.243925	669.0
1314.782425	668.0
1315.320869	669.2000122
1315.859257	670.0
1316.397589	671.0
1316.935866	667.2000122
1317.474086	668.0
1318.012251	666.5999756
1318.55036	666.5999756
1319.088413	669.2000122
1319.62641	667.5999756
1320.164351	667.2000122
1320.702236	670.5999756
1321.240066	667.4000244
1321.777839	668.4000244
1322.315557	668.5999756
1322.853219	666.7999878
1323.390826	668.4000244
1323.928376	672.7999878
1324.465871	667.4000244
1325.003309	668.7999878
1325.540692	669.0
1326.07802	669.0
1326.615291	665.2000122
1327.152506	666.4000244
1327.689666	668.2000122
1328.22677	669.2000122
1328.763818	668.2000122
1329.300811	667.0
1329.837747	665.5999756
1330.374628	668.5999756
1330.911453	665.5999756
1331.448222	668.4000244
1331.984936	672.5999756
1332.521594	667.4000244
1333.058196	667.2000122
1333.594742	670.2000122
1334.131232	669.5999756
1334.667667	668.4000244
1335.204046	668.2000122
1335.740369	668.0
1336.276637	668.4000244
1336.812848	667.0
1337.349004	670.7999878
1337.885105	670.5999756
1338.421149	668.4000244
1338.957138	669.2000122
1339.493071	669.0
1340.028949	667.0
1340.56477	670.0
1341.100536	669.0
1341.636246	670.2000122
1342.171901	669.2000122
1342.7075	670.4000244
1343.243043	671.0
1343.77853	667.5999756
1344.313962	669.0
1344.849338	667.5999756
1345.384659	669.0
1345.919923	669.4000244
1346.455133	667.0
1346.990286	668.7999878
1347.525384	667.7999878
1348.060426	669.7999878
1348.595412	669.0
1349.130343	667.0
1349.665218	671.7999878
1350.200037	668.5999756
1350.734801	670.4000244
1351.269509	665.5999756
1351.804162	666.4000244
1352.338758	669.0
1352.8733	669.4000244
1353.407785	669.5999756
1353.942215	671.2000122
1354.476589	665.2000122
1355.010908	672.0
1355.545171	666.0
1356.079379	668.0
1356.61353	669.0
1357.147627	670.2000122
1357.681667	668.0
1358.215652	667.7999878
1358.749582	668.4000244
1359.283456	669.2000122
1359.817274	668.5999756
1360.351037	669.5999756
1360.884744	666.5999756
1361.418395	669.0
1361.951991	666.4000244
1362.485531	670.7999878
1363.019016	669.2000122
1363.552445	666.7999878
1364.085819	666.7999878
1364.619137	669.2000122
1365.1524	667.2000122
1365.685607	666.5999756
1366.218758	669.4000244
1366.751854	668.4000244
1367.284894	669.2000122
1367.817879	667.0
1368.350808	666.5999756
1368.883682	669.5999756
1369.4165	667.5999756
1369.949263	667.4000244
1370.48197	670.4000244
1371.014622	669.4000244
1371.547218	666.5999756
1372.079758	667.7999878
1372.612244	669.2000122
1373.144673	668.5999756
1373.677047	666.4000244
1374.209366	667.4000244
1374.741629	666.4000244
1375.273836	669.7999878
1375.805989	667.7999878
1376.338085	669.4000244
1376.870126	669.7999878
1377.402112	668.0
1377.934042	668.2000122
1378.465917	666.7999878
1378.997736	666.5999756
1379.5295	668.7999878
1380.061208	667.5999756
1380.592861	671.2000122
1381.124459	669.0
1381.656	668.2000122
1382.187487	666.7999878
1382.718918	667.0
1383.250294	665.7999878
1383.781614	667.2000122
1384.312879	665.2000122
1384.844088	670.2000122
1385.375242	667.0
1385.90634	671.2000122
1386.437383	667.4000244
1386.968371	670.7999878
1387.499303	670.2000122
1388.03018	673.5999756
1388.561001	682.4000244
1389.091767	748.0
1389.622478	728.5999756
1390.153133	678.7999878
1390.683733	669.7999878
1391.214277	669.0
1391.744766	671.2000122
1392.2752	667.0
1392.805578	666.7999878
1393.335901	667.5999756
1393.866168	669.5999756
1394.396381	669.2000122
1394.926537	664.5999756
1395.456639	667.0
1395.986685	667.4000244
1396.516675	668.4000244
1397.046611	668.7999878
1397.576491	667.2000122
1398.106315	664.0
1398.636084	668.2000122
1399.165798	667.4000244
1399.695457	668.4000244
1400.22506	667.0
1400.754608	666.0
1401.284101	668.5999756
1401.813538	668.5999756
1402.34292	666.4000244
1402.872247	668.2000122
1403.401518	666.4000244
1403.930734	665.7999878
1404.459895	667.2000122
1404.989	667.2000122
1405.51805	666.5999756
1406.047045	671.0
1406.575984	668.5999756
1407.104869	669.2000122
1407.633697	666.2000122
1408.162471	668.4000244
1408.691189	670.5999756
1409.219852	665.7999878
1409.74846	673.2000122
1410.277013	674.2000122
1410.80551	674.0
1411.333952	667.7999878
1411.862339	670.5999756
1412.39067	666.2000122
1412.918946	669.0
1413.447167	666.7999878
1413.975333	668.5999756
1414.503444	670.2000122
1415.031499	667.4000244
1415.559499	678.4000244
1416.087444	668.2000122
1416.615333	668.2000122
1417.143167	668.2000122
1417.670947	666.5999756
1418.19867	666.4000244
1418.726339	668.2000122
1419.253952	669.5999756
1419.781511	667.5999756
1420.309014	669.5999756
1420.836461	668.7999878
1421.363854	668.0
1421.891191	666.4000244
1422.418474	667.2000122
1422.945701	667.7999878
1423.472872	667.2000122
1423.999989	667.7999878
1424.52705	666.0
1425.054057	667.0
1425.581008	665.0
1426.107904	669.5999756
1426.634745	664.5999756
1427.16153	667.0
1427.688261	669.2000122
1428.214936	667.7999878
1428.741556	669.2000122
1429.268121	666.0
1429.794631	668.5999756
1430.321085	668.5999756
1430.847485	669.0
1431.373829	668.5999756
1431.900118	667.0
1432.426353	667.4000244
1432.952532	666.4000244
1433.478655	667.4000244
1434.004724	669.7999878
1434.530738	667.7999878
1435.056696	668.4000244
1435.5826	671.7999878
1436.108448	665.5999756
1436.634241	667.4000244
1437.159979	668.5999756
1437.685662	667.5999756
1438.21129	668.4000244
1438.736863	670.4000244
1439.262381	666.0
1439.787843	671.7999878
1440.313251	666.2000122
1440.838603	666.4000244
1441.3639	665.7999878
1441.889143	667.5999756
1442.41433	668.5999756
1442.939462	667.7999878
1443.464539	669.0
1443.989561	668.4000244
1444.514528	667.0
1445.03944	670.2000122
1445.564297	667.4000244
1446.089099	666.5999756
1446.613846	667.2000122
1447.138537	666.0
1447.663174	667.0
1448.187756	666.2000122
1448.712282	668.4000244
1449.236754	667.4000244
1449.761171	666.4000244
1450.285532	667.7999878
1450.809839	666.4000244
1451.33409	668.0
1451.858287	668.4000244
1452.382428	666.4000244
1452.906515	665.4000244
1453.430546	666.4000244
1453.954523	666.0
1454.478444	667.2000122
1455.002311	664.2000122
1455.526123	667.0
1456.049879	666.7999878
1456.573581	666.5999756
1457.097227	666.0
1457.620819	667.2000122
1458.144356	669.2000122
1458.667837	665.2000122
1459.191264	668.0
1459.714636	666.5999756
1460.237952	666.4000244
1460.761214	667.7999878
1461.284421	669.5999756
1461.807573	665.4000244
1462.33067	667.5999756
1462.853712	667.5999756
1463.376699	671.2000122
1463.899632	666.4000244
1464.422509	668.7999878
1464.945331	670.7999878
1465.468099	667.0
1465.990811	666.5999756
1466.513469	667.2000122
1467.036071	666.2000122
1467.558619	669.2000122
1468.081112	667.7999878
1468.60355	667.5999756
1469.125933	666.4000244
1469.648261	665.7999878
1470.170534	668.4000244
1470.692752	666.5999756
1471.214916	666.4000244
1471.737024	665.4000244
1472.259078	669.7999878
1472.781077	665.4000244
1473.303021	665.4000244
1473.82491	669.0
1474.346744	668.2000122
1474.868523	668.5999756
1475.390248	669.5999756
1475.911917	666.7999878
1476.433532	666.7999878
1476.955092	664.4000244
1477.476597	668.7999878
1477.998047	665.4000244
1478.519442	668.0
1479.040783	665.4000244
1479.562068	669.4000244
1480.083299	669.5999756
1480.604475	666.5999756
1481.125596	667.2000122
1481.646663	669.5999756
1482.167674	667.5999756
1482.688631	668.2000122
1483.209533	669.7999878
1483.73038	666.4000244
1484.251172	665.0
1484.771909	665.5999756
1485.292592	665.4000244
1485.81322	667.0
1486.333793	668.7999878
1486.854311	667.5999756
1487.374775	666.0
1487.895183	667.2000122
1488.415537	671.2000122
1488.935836	666.5999756
1489.456081	668.2000122
1489.97627	667.4000244
1490.496405	667.2000122
1491.016485	667.5999756
1491.536511	668.7999878
1492.056481	666.0
1492.576397	669.0
1493.096258	666.7999878
1493.616064	667.5999756
1494.135816	667.2000122
1494.655513	665.0
1495.175155	668.0
1495.694742	666.5999756
1496.214274	666.7999878
1496.733752	667.7999878
1497.253175	667.2000122
1497.772544	668.7999878
1498.291858	664.5999756
1498.811116	667.7999878
1499.330321	665.0
1499.84947	674.2000122
1500.368565	667.4000244
1500.887605	667.7999878
1501.406591	670.4000244
1501.925521	665.0
1502.444397	667.7999878
1502.963219	668.2000122
1503.481985	666.4000244
1504.000697	666.4000244
1504.519355	669.5999756
1505.037957	665.5999756
1505.556505	666.2000122
1506.074999	667.2000122
1506.593437	669.4000244
1507.111821	664.0
1507.63015	665.7999878
1508.148425	670.2000122
1508.666645	667.7999878
1509.18481	665.2000122
1509.702921	669.7999878
1510.220977	664.7999878
1510.738979	673.2000122
1511.256925	667.7999878
1511.774817	665.7999878
1512.292655	668.7999878
1512.810438	666.4000244
1513.328166	667.2000122
1513.84584	666.4000244
1514.363459	666.4000244
1514.881023	667.4000244
1515.398533	665.2000122
1515.915988	668.5999756
1516.433389	666.5999756
1516.950734	667.7999878
1517.468026	665.7999878
1517.985263	666.5999756
1518.502445	667.4000244
1519.019572	668.2000122
1519.536645	668.5999756
1520.053664	668.0
1520.570628	666.5999756
1521.087537	667.0
1521.604392	666.4000244
1522.121192	667.2000122
1522.637937	666.0
1523.154628	667.0
1523.671265	665.5999756
1524.187847	667.2000122
1524.704374	666.5999756
1525.220847	663.5999756
1525.737265	667.7999878
1526.253629	667.0
1526.769938	668.0
1527.286192	663.4000244
1527.802392	666.7999878
1528.318538	664.7999878
1528.834629	668.7999878
1529.350666	667.0
1529.866648	667.4000244
1530.382575	670.7999878
1530.898448	667.4000244
1531.414266	670.4000244
1531.93003	664.4000244
1532.44574	667.7999878
1532.961395	667.2000122
1533.476995	666.4000244
1533.992541	668.5999756
1534.508033	667.0
1535.02347	665.4000244
1535.538852	667.5999756
1536.05418	667.5999756
1536.569454	668.5999756
1537.084673	667.7999878
1537.599837	667.7999878
1538.114947	666.2000122
1538.630003	667.5999756
1539.145004	666.5999756
1539.659951	668.4000244
1540.174843	666.5999756
1540.689681	664.7999878
1541.204465	667.5999756
1541.719194	666.7999878
1542.233868	667.2000122
1542.748488	667.4000244
1543.263054	666.5999756
1543.777565	666.5999756
1544.292022	667.0
1544.806424	666.4000244
1545.320772	666.2000122
1545.835066	665.4000244
1546.349305	664.5999756
1546.863489	664.7999878
1547.37762	665.5999756
1547.891696	667.7999878
1548.405717	666.7999878
1548.919684	667.5999756
1549.433597	667.7999878
1549.947455	665.2000122
1550.461259	666.0
1550.975009	668.5999756
1551.488704	665.7999878
1552.002345	666.4000244
1552.515931	668.2000122
1553.029463	666.4000244
1553.542941	666.4000244
1554.056364	668.2000122
1554.569733	665.2000122
1555.083048	665.2000122
1555.596308	664.5999756
1556.109514	667.4000244
1556.622665	664.7999878
1557.135762	664.5999756
1557.648805	667.2000122
1558.161794	664.7999878
1558.674728	668.7999878
1559.187608	666.4000244
1559.700433	666.4000244
1560.213205	665.5999756
1560.725921	665.5999756
1561.238584	665.5999756
1561.751192	667.4000244
1562.263746	668.5999756
1562.776246	667.0
1563.288691	668.7999878
1563.801082	666.2000122
1564.313419	667.4000244
1564.825701	666.7999878
1565.337929	667.0
1565.850103	665.4000244
1566.362223	668.2000122
1566.874288	664.2000122
1567.386299	667.2000122
1567.898256	667.2000122
1568.410158	667.0
1568.922007	665.2000122
1569.4338	663.2000122
1569.94554	666.5999756
1570.457226	668.4000244
1570.968857	667.7999878
1571.480434	666.4000244
1571.991956	667.2000122
1572.503425	663.7999878
1573.014839	666.7999878
1573.526199	665.7999878
1574.037505	666.0
1574.548756	664.2000122
1575.059953	664.4000244
1575.571096	665.7999878
1576.082185	668.2000122
1576.59322	666.0
1577.1042	668.2000122
1577.615126	665.2000122
1578.125998	665.7999878
1578.636816	665.5999756
1579.14758	666.7999878
1579.658289	665.2000122
1580.168944	667.0
1580.679545	668.2000122
1581.190092	663.7999878
1581.700585	665.7999878
1582.211023	664.4000244
1582.721407	665.4000244
1583.231737	663.5999756
1583.742013	667.4000244
1584.252235	665.2000122
1584.762403	665.4000244
1585.272516	665.4000244
1585.782575	666.2000122
1586.292581	667.2000122
1586.802532	663.7999878
1587.312428	665.4000244
1587.822271	664.4000244
1588.33206	666.4000244
1588.841794	666.4000244
1589.351474	665.2000122
1589.8611	663.0
1590.370672	663.7999878
1590.88019	669.2000122
1591.389654	666.4000244
1591.899064	667.4000244
1592.408419	662.0
