1042.452273	687.2000122
1043.018714	691.5999756
1043.585098	691.7999878
1044.151424	692.0
1044.717692	691.4000244
1045.283903	686.7999878
1045.850056	685.2000122
1046.416151	687.2000122
1046.982188	688.2000122
1047.548167	686.4000244
1048.114089	689.4000244
1048.679953	686.4000244
1049.24576	682.5999756
1049.811509	687.2000122
1050.3772	685.2000122
1050.942833	687.2000122
1051.508408	688.2000122
1052.073926	688.0
1052.639387	687.2000122
1053.204789	688.0
1053.770134	684.0
1054.335421	688.2000122
1054.900651	686.4000244
1055.465823	685.4000244
1056.030937	686.2000122
1056.595993	688.4000244
1057.160992	685.5999756
1057.725934	684.5999756
1058.290817	689.5999756
1058.855643	684.5999756
1059.420411	687.7999878
1059.985122	687.5999756
1060.549775	684.5999756
1061.114371	685.4000244
1061.678908	681.4000244
1062.243389	684.5999756
1062.807811	684.2000122
1063.372176	684.7999878
1063.936483	685.5999756
1064.500733	687.0
1065.064925	680.7999878
1065.62906	683.7999878
1066.193137	682.5999756
1066.757156	687.5999756
1067.321118	684.2000122
1067.885022	685.5999756
1068.448869	681.2000122
1069.012658	684.7999878
1069.57639	682.7999878
1070.140063	688.2000122
1070.70368	681.7999878
1071.267239	686.5999756
1071.83074	684.7999878
1072.394184	684.2000122
1072.95757	683.0
1073.520899	683.2000122
1074.08417	686.0
1074.647383	683.5999756
1075.21054	682.2000122
1075.773638	683.5999756
1076.336679	678.7999878
1076.899663	683.0
1077.462589	682.4000244
1078.025457	683.4000244
1078.588268	679.2000122
1079.151022	679.7999878
1079.713718	683.7999878
1080.276356	680.2000122
1080.838937	682.5999756
1081.401461	683.4000244
1081.963927	682.5999756
1082.526336	684.0
1083.088687	684.2000122
1083.650981	682.5999756
1084.213217	680.5999756
1084.775396	682.7999878
1085.337517	682.2000122
1085.899581	680.4000244
1086.461587	681.4000244
1087.023536	685.0
1087.585428	682.7999878
1088.147262	682.7999878
1088.709039	681.7999878
1089.270758	682.5999756
1089.83242	682.7999878
1090.394024	684.0
1090.955571	680.5999756
1091.517061	678.2000122
1092.078493	680.5999756
1092.639868	680.5999756
1093.201185	678.4000244
1093.762445	684.0
1094.323648	684.2000122
1094.884793	682.0
1095.445881	679.5999756
1096.006911	678.4000244
1096.567884	680.4000244
1097.1288	690.7999878
1097.689659	680.0
1098.25046	682.5999756
1098.811203	682.0
1099.37189	679.4000244
1099.932518	677.7999878
1100.49309	684.4000244
1101.053604	683.4000244
1101.614061	682.7999878
1102.174461	682.4000244
1102.734803	682.2000122
1103.295088	684.7999878
1103.855316	682.4000244
1104.415486	681.0
1104.975599	679.5999756
1105.535655	684.5999756
1106.095653	675.5999756
1106.655594	681.0
1107.215478	680.2000122
1107.775305	681.0
1108.335074	680.0
1108.894786	683.0
1109.45444	679.2000122
1110.014038	685.5999756
1110.573578	678.7999878
1111.133061	678.5999756
1111.692486	681.7999878
1112.251854	682.0
1112.811165	678.7999878
1113.370419	682.4000244
1113.929616	679.5999756
1114.488755	680.5999756
1115.047837	680.0
1115.606862	682.5999756
1116.16583	680.7999878
1116.72474	678.4000244
1117.283593	681.0
1117.842389	681.5999756
1118.401128	679.4000244
1118.959809	679.0
1119.518433	683.0
1120.077	682.4000244
1120.63551	678.2000122
1121.193963	680.5999756
1121.752358	680.5999756
1122.310697	684.2000122
1122.868978	680.0
1123.427202	679.7999878
1123.985368	681.2000122
1124.543478	678.7999878
1125.10153	680.0
1125.659526	681.5999756
1126.217464	682.4000244
1126.775345	684.7999878
1127.333168	680.7999878
1127.890935	685.7999878
1128.448644	682.0
1129.006297	687.5999756
1129.563892	684.7999878
1130.12143	684.0
1130.678911	682.5999756
1131.236335	682.2000122
1131.793701	680.2000122
1132.351011	680.4000244
1132.908263	680.7999878
1133.465458	679.4000244
1134.022597	684.0
1134.579678	679.0
1135.136702	680.5999756
1135.693669	682.7999878
1136.250578	683.0
1136.807431	681.2000122
1137.364227	680.2000122
1137.920965	677.7999878
1138.477647	681.0
1139.034271	680.4000244
1139.590839	682.0
1140.147349	680.4000244
1140.703802	679.4000244
1141.260198	682.5999756
1141.816537	676.4000244
1142.37282	681.7999878
1142.929045	681.2000122
1143.485213	680.0
1144.041323	681.5999756
1144.597377	679.7999878
1145.153374	679.5999756
1145.709314	682.4000244
1146.265197	681.7999878
1146.821023	678.4000244
1147.376792	680.7999878
1147.932503	676.7999878
1148.488158	681.0
1149.043756	682.4000244
1149.599297	681.2000122
1150.154781	678.7999878
1150.710207	676.7999878
1151.265577	679.7999878
1151.82089	679.2000122
1152.376146	679.5999756
1152.931345	677.4000244
1153.486487	678.4000244
1154.041572	679.7999878
1154.5966	680.0
1155.151571	681.5999756
1155.706485	681.0
1156.261342	680.4000244
1156.816142	682.7999878
1157.370885	680.5999756
1157.925572	681.2000122
1158.480201	683.7999878
1159.034774	681.2000122
1159.589289	678.5999756
1160.143748	682.7999878
1160.698149	681.2000122
1161.252494	678.2000122
1161.806782	680.2000122
1162.361013	681.0
1162.915187	679.2000122
1163.469304	679.0
1164.023364	682.2000122
1164.577368	680.2000122
1165.131314	676.5999756
1165.685204	677.0
1166.239036	679.4000244
1166.792812	681.4000244
1167.346531	680.7999878
1167.900193	677.0
1168.453798	679.7999878
1169.007347	678.0
1169.560838	678.4000244
1170.114273	678.5999756
1170.66765	683.4000244
1171.220971	678.2000122
1171.774235	676.0
1172.327443	676.7999878
1172.880593	681.2000122
1173.433687	678.7999878
1173.986723	679.4000244
1174.539703	679.0
1175.092626	680.5999756
1175.645493	681.2000122
1176.198302	679.0
1176.751055	679.4000244
1177.303751	677.7999878
1177.85639	677.0
1178.408972	679.4000244
1178.961498	678.5999756
1179.513966	677.5999756
1180.066378	682.5999756
1180.618733	680.5999756
1181.171032	682.2000122
1181.723273	680.5999756
1182.275458	677.4000244
1182.827586	678.7999878
1183.379657	678.4000244
1183.931672	679.2000122
1184.48363	679.5999756
1185.035531	679.2000122
1185.587375	679.2000122
1186.139162	675.5999756
1186.690893	683.7999878
1187.242567	682.7999878
1187.794184	682.2000122
1188.345745	677.7999878
1188.897249	679.7999878
1189.448696	679.2000122
1190.000086	680.2000122
1190.55142	675.5999756
1191.102697	675.5999756
1191.653918	680.0
1192.205081	678.2000122
1192.756188	678.5999756
1193.307238	692.4000244
1193.858232	678.5999756
1194.409169	677.5999756
1194.960049	676.2000122
1195.510872	677.7999878
1196.061639	677.5999756
1196.612349	679.5999756
1197.163003	677.4000244
1197.713599	680.0
1198.264139	680.7999878
1198.814623	679.2000122
1199.36505	679.2000122
1199.91542	676.2000122
1200.465734	679.2000122
1201.01599	678.7999878
1201.566191	679.5999756
1202.116334	678.7999878
1202.666421	678.5999756
1203.216452	677.5999756
1203.766425	680.7999878
1204.316343	677.4000244
1204.866203	681.2000122
1205.416007	682.4000244
1205.965754	677.7999878
1206.515445	680.7999878
1207.065079	678.7999878
1207.614657	678.5999756
1208.164177	681.5999756
1208.713642	683.4000244
1209.26305	679.5999756
1209.812401	679.7999878
1210.361695	678.4000244
1210.910933	680.4000244
1211.460115	680.0
1212.00924	679.5999756
1212.558308	680.4000244
1213.10732	677.0
1213.656275	676.4000244
1214.205174	677.5999756
1214.754016	676.7999878
1215.302801	678.2000122
1215.85153	679.5999756
1216.400203	681.2000122
1216.948819	678.2000122
1217.497378	681.5999756
1218.045881	680.5999756
1218.594327	680.4000244
1219.142717	679.7999878
1219.691051	682.7999878
1220.239327	679.5999756
1220.787548	677.4000244
1221.335712	682.5999756
1221.883819	680.2000122
1222.43187	678.4000244
1222.979864	680.7999878
1223.527802	678.5999756
1224.075683	680.0
1224.623508	680.2000122
1225.171277	677.4000244
1225.718989	678.7999878
1226.266644	679.0
1226.814243	678.2000122
1227.361786	681.5999756
1227.909272	684.5999756
1228.456702	678.7999878
1229.004075	681.2000122
1229.551392	682.7999878
1230.098652	682.7999878
1230.645856	682.2000122
1231.193003	678.2000122
1231.740094	681.5999756
1232.287129	681.0
1232.834107	681.0
1233.381029	682.0
1233.927894	680.5999756
1234.474703	683.4000244
1235.021455	678.5999756
1235.568151	680.0
1236.114791	680.5999756
1236.661374	684.2000122
1237.207901	683.2000122
1237.754372	683.7999878
1238.300786	683.0
1238.847144	683.0
1239.393445	684.2000122
1239.93969	680.5999756
1240.485879	682.7999878
1241.032011	683.5999756
1241.578087	683.0
1242.124106	679.5999756
1242.67007	685.0
1243.215976	681.5999756
1243.761827	681.5999756
1244.307621	681.7999878
1244.853359	683.7999878
1245.39904	679.5999756
1245.944665	683.0
1246.490234	680.4000244
1247.035746	679.0
1247.581203	686.0
1248.126602	685.2000122
1248.671946	682.5999756
1249.217233	687.7999878
1249.762464	687.2000122
1250.307638	686.5999756
1250.852757	684.5999756
1251.397819	683.7999878
1251.942824	685.5999756
1252.487774	685.2000122
1253.032667	681.2000122
1253.577503	682.5999756
1254.122284	682.7999878
1254.667008	684.4000244
1255.211676	681.4000244
1255.756288	682.5999756
1256.300843	682.7999878
1256.845342	684.5999756
1257.389785	681.5999756
1257.934172	680.7999878
1258.478502	683.5999756
1259.022776	688.2000122
1259.566994	696.2000122
1260.111156	693.0
1260.655261	685.7999878
1261.199311	685.5999756
1261.743304	689.0
1262.28724	687.4000244
1262.831121	694.5999756
1263.374945	696.4000244
1263.918713	706.4000244
1264.462425	724.0
1265.006081	769.2000122
1265.54968	766.7999878
1266.093223	730.7999878
1266.636711	705.5999756
1267.180141	694.4000244
1267.723516	690.7999878
1268.266835	687.5999756
1268.810097	692.4000244
1269.353303	686.4000244
1269.896453	688.5999756
1270.439547	684.7999878
1270.982584	686.7999878
1271.525566	689.4000244
1272.068491	687.5999756
1272.61136	683.5999756
1273.154173	685.5999756
1273.69693	684.5999756
1274.239631	685.7999878
1274.782275	684.7999878
1275.324864	687.7999878
1275.867396	684.2000122
1276.409872	692.4000244
1276.952292	684.5999756
1277.494656	686.4000244
1278.036964	687.2000122
1278.579215	685.5999756
1279.121411	685.0
1279.66355	687.4000244
1280.205634	686.0
1280.747661	688.2000122
1281.289632	694.5999756
1281.831547	698.0
1282.373406	699.5999756
1282.915209	710.0
1283.456955	733.0
1283.998646	781.4000244
1284.540281	949.4000244
1285.081859	1565.400024
1285.623381	2003.400024
1286.164848	1257.800049
1286.706258	835.5999756
1287.247612	740.4000244
1287.788911	713.5999756
1288.330153	699.5999756
1288.871339	700.0
1289.412469	697.4000244
1289.953543	693.7999878
1290.494561	689.7999878
1291.035523	688.5999756
1291.576428	685.0
1292.117278	686.4000244
1292.658072	684.7999878
1293.19881	683.0
1293.739492	686.2000122
1294.280118	687.4000244
1294.820687	684.7999878
1295.361201	685.5999756
1295.901659	685.5999756
1296.442061	683.7999878
1296.982406	682.5999756
1297.522696	684.5999756
1298.06293	684.4000244
1298.603108	687.0
1299.143229	684.2000122
1299.683295	685.5999756
1300.223305	681.0
1300.763259	683.2000122
1301.303157	680.7999878
1301.842999	682.7999878
1302.382785	686.2000122
1302.922515	684.0
1303.462189	684.4000244
1304.001807	682.5999756
1304.541369	686.0
1305.080875	683.4000244
1305.620326	682.2000122
1306.15972	683.7999878
1306.699058	681.2000122
1307.238341	682.7999878
1307.777567	683.0
1308.316738	682.4000244
1308.855853	684.0
1309.394912	684.2000122
1309.933915	686.7999878
1310.472862	683.7999878
1311.011753	684.4000244
1311.550588	683.4000244
1312.089367	684.2000122
1312.62809	682.4000244
1313.166758	680.2000122
1313.70537	686.2000122
1314.243925	682.4000244
1314.782425	682.5999756
1315.320869	685.5999756
1315.859257	682.4000244
1316.397589	681.2000122
1316.935866	687.5999756
1317.474086	682.4000244
1318.012251	684.7999878
1318.55036	681.0
1319.088413	682.0
1319.62641	682.5999756
1320.164351	683.4000244
1320.702236	681.7999878
1321.240066	681.5999756
1321.777839	684.2000122
1322.315557	682.4000244
1322.853219	681.5999756
1323.390826	680.4000244
1323.928376	686.4000244
1324.465871	684.2000122
1325.003309	681.5999756
1325.540692	682.0
1326.07802	681.2000122
1326.615291	681.4000244
1327.152506	681.7999878
1327.689666	681.4000244
1328.22677	682.0
1328.763818	682.2000122
1329.300811	683.2000122
1329.837747	680.0
1330.374628	677.0
1330.911453	679.2000122
1331.448222	679.0
1331.984936	679.0
1332.521594	682.0
1333.058196	678.4000244
1333.594742	681.2000122
1334.131232	681.4000244
1334.667667	680.7999878
1335.204046	681.4000244
1335.740369	679.5999756
1336.276637	681.0
1336.812848	679.7999878
1337.349004	682.2000122
1337.885105	682.5999756
1338.421149	682.5999756
1338.957138	682.5999756
1339.493071	682.2000122
1340.028949	681.0
1340.56477	681.5999756
1341.100536	680.5999756
1341.636246	678.2000122
1342.171901	683.4000244
1342.7075	681.5999756
1343.243043	681.7999878
1343.77853	684.5999756
1344.313962	678.7999878
1344.849338	680.2000122
1345.384659	683.5999756
1345.919923	679.5999756
1346.455133	680.5999756
1346.990286	681.2000122
1347.525384	680.2000122
1348.060426	681.2000122
1348.595412	679.4000244
1349.130343	684.0
1349.665218	681.2000122
1350.200037	681.5999756
1350.734801	683.2000122
1351.269509	679.4000244
1351.804162	681.7999878
1352.338758	677.0
1352.8733	680.7999878
1353.407785	678.4000244
1353.942215	681.5999756
1354.476589	683.2000122
1355.010908	684.4000244
1355.545171	681.7999878
1356.079379	683.4000244
1356.61353	682.5999756
1357.147627	680.7999878
1357.681667	684.0
1358.215652	682.2000122
1358.749582	680.5999756
1359.283456	679.0
1359.817274	681.7999878
1360.351037	682.0
1360.884744	682.5999756
1361.418395	679.5999756
1361.951991	680.0
1362.485531	683.5999756
1363.019016	681.0
1363.552445	681.5999756
1364.085819	686.0
1364.619137	682.7999878
1365.1524	685.2000122
1365.685607	684.0
1366.218758	686.7999878
1366.751854	686.5999756
1367.284894	686.0
1367.817879	681.7999878
1368.350808	683.5999756
1368.883682	683.0
1369.4165	685.7999878
1369.949263	696.4000244
1370.48197	723.0
1371.014622	700.2000122
1371.547218	685.7999878
1372.079758	682.4000244
1372.612244	682.4000244
1373.144673	684.4000244
1373.677047	684.7999878
1374.209366	684.7999878
1374.741629	685.4000244
1375.273836	685.5999756
1375.805989	686.5999756
1376.338085	685.5999756
1376.870126	683.0
1377.402112	685.5999756
1377.934042	687.5999756
1378.465917	685.5999756
1378.997736	683.7999878
1379.5295	687.7999878
1380.061208	686.5999756
1380.592861	689.4000244
1381.124459	687.5999756
1381.656	686.4000244
1382.187487	689.5999756
1382.718918	688.5999756
1383.250294	691.0
1383.781614	692.4000244
1384.312879	693.7999878
1384.844088	703.7999878
1385.375242	701.2000122
1385.90634	719.5999756
1386.437383	726.7999878
1386.968371	752.7999878
1387.499303	825.2000122
1388.03018	1178.0
1388.561001	2599.600098
1389.091767	2632.399902
1389.622478	1176.800049
1390.153133	816.7999878
1390.683733	742.2000122
1391.214277	719.5999756
1391.744766	709.7999878
1392.2752	699.5999756
1392.805578	697.2000122
1393.335901	694.4000244
1393.866168	691.0
1394.396381	693.5999756
1394.926537	690.0
1395.456639	687.2000122
1395.986685	685.0
1396.516675	687.2000122
1397.046611	681.4000244
1397.576491	686.7999878
1398.106315	686.0
1398.636084	682.4000244
1399.165798	684.0
1399.695457	687.2000122
1400.22506	683.2000122
1400.754608	682.0
1401.284101	681.5999756
1401.813538	685.7999878
1402.34292	684.0
1402.872247	682.2000122
1403.401518	685.4000244
1403.930734	684.7999878
1404.459895	683.4000244
1404.989	685.2000122
1405.51805	684.7999878
1406.047045	688.0
1406.575984	687.5999756
1407.104869	688.5999756
1407.633697	692.2000122
1408.162471	696.0
1408.691189	708.5999756
1409.219852	738.7999878
1409.74846	812.2000122
1410.277013	854.2000122
1410.80551	782.0
1411.333952	714.0
1411.862339	698.4000244
1412.39067	691.7999878
1412.918946	690.0
1413.447167	684.5999756
1413.975333	685.7999878
1414.503444	681.5999756
1415.031499	681.2000122
1415.559499	691.7999878
1416.087444	683.2000122
1416.615333	684.0
1417.143167	684.5999756
1417.670947	682.4000244
1418.19867	680.5999756
1418.726339	676.5999756
1419.253952	676.7999878
1419.781511	677.5999756
1420.309014	680.2000122
1420.836461	683.0
1421.363854	681.5999756
1421.891191	680.7999878
1422.418474	678.7999878
1422.945701	681.2000122
1423.472872	679.5999756
1423.999989	680.2000122
1424.52705	679.7999878
1425.054057	683.0
1425.581008	680.2000122
1426.107904	688.4000244
1426.634745	683.7999878
1427.16153	685.2000122
1427.688261	683.5999756
1428.214936	681.0
1428.741556	681.0
1429.268121	680.2000122
1429.794631	680.4000244
1430.321085	678.4000244
1430.847485	675.4000244
1431.373829	678.0
1431.900118	678.4000244
1432.426353	679.5999756
1432.952532	680.2000122
1433.478655	682.5999756
1434.004724	679.2000122
1434.530738	677.4000244
1435.056696	678.0
1435.5826	678.2000122
1436.108448	680.5999756
1436.634241	680.0
1437.159979	677.5999756
1437.685662	676.5999756
1438.21129	676.5999756
1438.736863	677.0
1439.262381	674.7999878
1439.787843	677.2000122
1440.313251	676.4000244
1440.838603	676.5999756
1441.3639	677.0
1441.889143	676.0
1442.41433	677.2000122
1442.939462	677.4000244
1443.464539	678.2000122
1443.989561	676.4000244
1444.514528	674.5999756
1445.03944	676.7999878
1445.564297	676.7999878
1446.089099	678.4000244
1446.613846	673.2000122
1447.138537	674.2000122
1447.663174	672.7999878
1448.187756	679.5999756
1448.712282	678.2000122
1449.236754	678.5999756
1449.761171	671.2000122
1450.285532	673.5999756
1450.809839	674.7999878
1451.33409	678.0
1451.858287	678.2000122
1452.382428	676.7999878
1452.906515	676.4000244
1453.430546	674.0
1453.954523	676.2000122
1454.478444	673.7999878
1455.002311	677.2000122
1455.526123	677.0
1456.049879	676.2000122
1456.573581	672.2000122
1457.097227	673.2000122
1457.620819	676.5999756
1458.144356	675.2000122
1458.667837	674.0
1459.191264	673.7999878
1459.714636	674.0
1460.237952	675.5999756
1460.761214	675.5999756
1461.284421	675.5999756
1461.807573	676.4000244
1462.33067	672.4000244
1462.853712	693.0
1463.899632	675.0
1464.422509	674.4000244
1464.945331	674.5999756
1465.468099	670.7999878
1465.990811	671.7999878
1466.513469	672.4000244
1467.036071	677.5999756
1467.558619	674.0
1468.081112	677.5999756
1468.60355	676.4000244
1469.125933	674.5999756
1469.648261	670.5999756
1470.170534	677.4000244
1470.692752	678.2000122
1471.214916	674.2000122
1471.737024	673.5999756
1472.259078	674.2000122
1472.781077	675.5999756
1473.303021	673.4000244
1473.82491	672.7999878
1474.346744	676.0
1474.868523	671.4000244
1475.390248	676.2000122
1475.911917	673.0
1476.433532	672.2000122
1476.955092	672.2000122
1477.476597	675.4000244
1477.998047	672.7999878
1478.519442	673.4000244
1479.040783	673.2000122
1479.562068	674.2000122
1480.083299	670.7999878
1480.604475	672.4000244
1481.125596	672.0
1481.646663	674.7999878
1482.167674	679.2000122
1482.688631	671.7999878
1483.209533	674.0
1483.73038	672.7999878
1484.251172	676.2000122
1484.771909	673.2000122
1485.292592	676.0
1485.81322	673.4000244
1486.333793	677.0
1486.854311	675.7999878
1487.374775	673.7999878
1487.895183	671.5999756
1488.415537	674.2000122
1488.935836	671.0
1489.456081	673.4000244
1489.97627	673.7999878
1490.496405	672.0
1491.016485	674.5999756
1491.536511	675.2000122
1492.056481	672.7999878
1492.576397	674.2000122
1493.096258	670.4000244
1493.616064	674.2000122
1494.135816	672.7999878
1494.655513	674.7999878
1495.175155	673.5999756
1495.694742	671.0
1496.214274	676.0
1496.733752	675.4000244
1497.253175	673.7999878
1497.772544	674.0
1498.291858	671.5999756
1498.811116	674.2000122
1499.330321	672.7999878
1499.84947	681.0
1500.368565	673.2000122
1500.887605	671.2000122
1501.406591	670.4000244
1501.925521	675.7999878
1502.444397	673.7999878
1502.963219	672.0
1503.481985	675.7999878
1504.000697	675.0
1504.519355	673.2000122
1505.037957	670.2000122
1505.556505	669.5999756
1506.074999	668.2000122
1506.593437	672.4000244
1507.111821	669.0
1507.63015	672.5999756
1508.148425	669.5999756
1508.666645	677.4000244
1509.18481	671.7999878
1509.702921	670.2000122
1510.220977	672.2000122
1510.738979	678.5999756
1511.256925	672.2000122
1511.774817	671.0
1512.292655	672.5999756
1512.810438	674.2000122
1513.328166	674.5999756
1513.84584	673.5999756
1514.363459	675.5999756
1514.881023	672.7999878
1515.398533	671.4000244
1515.915988	675.0
1516.433389	673.0
1516.950734	671.0
1517.468026	675.2000122
1517.985263	670.7999878
1518.502445	676.2000122
1519.019572	671.4000244
1519.536645	673.7999878
1520.053664	672.0
1520.570628	669.2000122
1521.087537	674.7999878
1521.604392	678.2000122
1522.121192	673.2000122
1522.637937	673.2000122
1523.154628	675.4000244
1523.671265	673.4000244
1524.187847	675.0
1524.704374	671.7999878
1525.220847	671.0
1525.737265	674.5999756
1526.253629	675.0
1526.769938	674.7999878
1527.286192	674.2000122
1527.802392	673.2000122
1528.318538	671.5999756
1528.834629	672.0
1529.350666	674.4000244
1529.866648	674.4000244
1530.382575	673.5999756
1530.898448	671.7999878
1531.414266	675.2000122
1531.93003	672.7999878
1532.44574	672.7999878
1532.961395	676.5999756
1533.476995	670.2000122
1533.992541	673.4000244
1534.508033	672.2000122
1535.02347	673.5999756
1535.538852	671.2000122
1536.05418	671.5999756
1536.569454	670.4000244
1537.084673	672.4000244
1537.599837	674.7999878
1538.114947	673.0
1538.630003	671.5999756
1539.145004	669.4000244
1539.659951	673.5999756
1540.174843	673.0
1540.689681	673.0
1541.204465	670.7999878
1541.719194	673.5999756
1542.233868	677.5999756
1542.748488	673.2000122
1543.263054	673.7999878
1543.777565	670.2000122
1544.292022	673.0
1544.806424	672.5999756
1545.320772	670.7999878
1545.835066	670.4000244
1546.349305	671.2000122
1546.863489	672.4000244
1547.37762	671.5999756
1547.891696	673.2000122
1548.405717	673.4000244
1548.919684	671.0
1549.433597	671.0
1549.947455	672.7999878
1550.461259	670.7999878
1550.975009	673.4000244
1551.488704	672.5999756
1552.002345	670.5999756
1552.515931	673.2000122
1553.029463	671.2000122
1553.542941	672.2000122
1554.056364	675.2000122
1554.569733	670.7999878
1555.083048	669.2000122
1555.596308	673.2000122
1556.109514	672.4000244
1556.622665	673.0
1557.135762	674.4000244
1557.648805	673.5999756
1558.161794	673.5999756
1558.674728	673.0
1559.187608	670.2000122
1559.700433	675.2000122
1560.213205	672.4000244
1560.725921	672.2000122
1561.238584	670.7999878
1561.751192	669.0
1562.263746	671.7999878
1562.776246	673.2000122
1563.288691	673.4000244
1563.801082	672.0
1564.313419	669.4000244
1564.825701	672.2000122
1565.337929	675.4000244
1565.850103	670.7999878
1566.362223	673.5999756
1566.874288	674.0
1567.386299	673.2000122
1567.898256	669.4000244
1568.410158	673.2000122
1568.922007	671.2000122
1569.4338	673.2000122
1569.94554	668.5999756
1570.457226	672.5999756
1570.968857	673.2000122
1571.480434	670.2000122
1571.991956	673.7999878
1572.503425	671.7999878
1573.014839	672.4000244
1573.526199	674.5999756
1574.037505	669.4000244
1574.548756	672.4000244
1575.059953	674.5999756
1575.571096	673.0
1576.082185	672.2000122
1576.59322	674.2000122
1577.1042	670.4000244
1577.615126	673.0
1578.125998	670.5999756
1578.636816	670.5999756
1579.14758	674.0
1579.658289	671.4000244
1580.168944	667.7999878
1580.679545	672.0
1581.190092	671.7999878
1581.700585	671.4000244
1582.211023	667.4000244
1582.721407	670.4000244
1583.231737	672.5999756
1583.742013	673.5999756
1584.252235	670.5999756
1584.762403	673.7999878
1585.272516	670.4000244
1585.782575	673.0
1586.292581	673.2000122
1586.802532	673.7999878
1587.312428	669.5999756
1587.822271	671.2000122
1588.33206	669.0
1588.841794	671.0
1589.351474	670.5999756
1589.8611	672.2000122
1590.370672	671.7999878
1590.88019	667.0
1591.389654	670.7999878
1591.899064	668.5999756
1592.408419	671.4000244
