1037.211545	713.0
1037.778412	711.0
1038.345221	711.0
1038.911973	715.75
1039.478666	712.5
1040.045302	709.5
1040.61188	707.25
1041.178401	708.5
1041.744863	708.75
1042.311268	709.75
1042.877615	706.25
1043.443905	707.25
1044.010136	707.0
1044.57631	704.0
1045.142426	703.5
1045.708484	705.0
1046.274485	702.5
1046.840427	712.75
1047.406312	712.0
1047.97214	705.0
1048.537909	706.5
1049.103621	705.75
1049.669275	709.25
1050.234871	703.0
1050.80041	706.75
1051.365891	707.0
1051.931314	702.0
1052.49668	700.5
1053.061988	705.75
1053.627238	705.0
1054.19243	705.0
1054.757565	704.0
1055.322642	705.25
1055.887661	701.5
1056.452623	701.5
1057.017527	703.75
1057.582374	701.25
1058.147162	704.5
1058.711893	700.75
1059.276567	701.75
1059.841183	703.5
1060.405741	702.0
1060.970241	701.5
1061.534684	703.5
1062.099069	697.25
1062.663397	703.75
1063.227667	707.25
1063.791879	699.25
1064.356034	703.5
1064.920131	700.25
1065.48417	700.75
1066.048152	695.75
1066.612076	699.0
1067.175943	699.5
1067.739752	699.5
1068.303504	697.25
1068.867197	702.5
1069.430834	702.75
1069.994413	699.25
1070.557934	703.0
1071.121397	699.75
1071.684803	701.75
1072.248152	701.75
1072.811443	700.75
1073.374676	698.75
1073.937852	706.25
1074.50097	701.75
1075.064031	697.75
1075.627034	698.0
1076.18998	703.5
1076.752868	698.0
1077.315698	697.75
1077.878471	700.25
1078.441187	698.75
1079.003845	696.75
1079.566446	700.0
1080.128989	702.25
1080.691474	698.5
1081.253902	697.5
1081.816273	697.5
1082.378586	699.0
1082.940841	702.5
1083.503039	705.25
1084.06518	700.5
1084.627263	698.75
1085.189289	701.0
1085.751257	700.0
1086.313168	703.0
1086.875021	701.25
1087.436817	694.5
1087.998555	705.0
1088.560236	707.25
1089.12186	699.75
1089.683426	696.0
1090.244934	704.75
1090.806386	703.5
1091.367779	700.25
1091.929116	707.0
1092.490395	696.25
1093.051616	700.0
1093.61278	701.75
1094.173887	699.0
1094.734936	701.75
1095.295928	700.0
1095.856863	698.5
1096.41774	697.75
1096.97856	698.5
1097.539322	692.5
1098.100027	696.25
1098.660675	705.25
1099.221265	695.75
1099.781798	698.75
1100.342274	698.25
1100.902692	702.0
1101.463053	699.75
1102.023356	698.75
1102.583602	701.25
1103.143791	696.5
1103.703922	700.5
1104.263996	699.75
1104.824013	699.25
1105.383973	702.0
1105.943875	699.5
1106.50372	701.25
1107.063507	700.25
1107.623237	698.25
1108.18291	697.75
1108.742526	701.5
1109.302084	708.5
1109.861585	700.75
1110.421029	699.0
1110.980416	701.0
1111.539745	702.75
1112.099017	709.5
1112.658231	700.5
1113.217389	702.5
1113.776489	702.75
1114.335531	700.5
1114.894517	702.75
1115.453445	701.75
1116.012316	700.5
1116.57113	698.75
1117.129887	702.0
1117.688586	695.75
1118.247228	697.25
1118.805813	697.75
1119.364341	699.0
1119.922811	698.5
1120.481224	700.0
1121.03958	698.5
1121.597879	700.5
1122.156121	702.0
1122.714305	699.75
1123.272432	699.75
1123.830502	702.25
1124.388515	700.25
1124.946471	697.25
1125.504369	699.25
1126.062211	700.0
1126.619995	701.25
1127.177722	699.75
1127.735391	700.0
1128.293004	704.5
1128.850559	700.75
1129.408058	704.75
1129.965499	700.75
1130.522883	704.25
1131.08021	704.5
1131.637479	700.75
1132.194692	695.25
1132.751847	699.75
1133.308946	701.0
1133.865987	695.25
1134.422971	694.5
1134.979898	701.0
1135.536768	699.25
1136.09358	698.25
1136.650336	697.25
1137.207035	698.5
1137.763676	697.25
1138.32026	699.75
1138.876788	705.75
1139.433258	697.25
1139.989671	697.25
1140.546027	696.25
1141.102326	696.5
1141.658568	699.75
1142.214753	699.25
1142.770881	699.0
1143.326951	701.0
1143.882965	702.0
1144.438922	701.25
1144.994821	696.75
1145.550664	697.75
1146.106449	695.75
1146.662178	699.5
1147.217849	699.0
1147.773464	698.25
1148.329021	696.25
1148.884521	696.25
1149.439965	700.75
1149.995351	695.0
1150.55068	701.5
1151.105953	694.75
1151.661168	697.75
1152.216326	697.5
1152.771428	697.5
1153.326472	697.5
1153.88146	698.75
1154.43639	698.0
1154.991263	700.5
1155.54608	694.75
1156.100839	702.5
1156.655542	699.75
1157.210188	698.0
1157.764776	697.25
1158.319308	697.75
1158.873783	699.75
1159.428201	699.75
1159.982561	701.25
1160.536865	701.75
1161.091112	703.5
1161.645302	702.0
1162.199436	705.5
1162.753512	702.25
1163.307531	699.25
1163.861494	704.5
1164.415399	700.0
1164.969248	699.5
1165.523039	702.5
1166.076774	699.0
1166.630452	701.75
1167.184073	700.25
1167.737637	698.5
1168.291144	701.0
1168.844595	702.0
1169.397988	698.0
1169.951325	694.75
1170.504605	705.0
1171.057828	700.25
1171.610994	700.25
1172.164103	701.25
1172.717155	697.0
1173.270151	698.0
1173.823089	697.0
1174.375971	697.75
1174.928796	698.5
1175.481564	702.75
1176.034276	702.25
1176.58693	702.25
1177.139528	700.75
1177.692069	698.5
1178.244553	696.25
1178.79698	696.75
1179.34935	702.75
1179.901664	697.75
1180.453921	706.25
1181.006121	702.5
1181.558264	704.25
1182.110351	701.0
1182.66238	704.5
1183.214353	701.25
1183.76627	705.5
1184.318129	694.75
1184.869932	701.75
1185.421677	699.75
1185.973367	698.5
1186.524999	703.25
1187.076574	701.5
1187.628093	706.25
1188.179555	716.5
1188.730961	703.75
1189.282309	699.5
1189.833601	702.75
1190.384837	698.5
1190.936015	699.0
1191.487137	697.75
1192.038202	699.25
1192.58921	700.25
1193.140162	698.0
1193.691057	698.75
1194.241895	702.5
1194.792676	697.5
1195.343401	699.0
1195.894069	698.75
1196.444681	698.25
1196.995235	697.5
1197.545733	696.0
1198.096175	702.75
1198.646559	698.75
1199.196887	697.0
1199.747159	699.0
1200.297374	699.25
1200.847532	700.0
1201.397633	699.75
1201.947678	699.5
1202.497666	701.5
1203.047598	697.25
1203.597472	698.0
1204.147291	693.75
1204.697052	705.0
1205.246757	698.0
1205.796406	700.75
1206.345997	700.0
1206.895532	704.75
1207.445011	698.25
1207.994433	702.5
1208.543798	699.25
1209.093107	702.5
1209.642359	703.75
1210.191554	702.25
1210.740693	699.0
1211.289776	700.5
1211.838801	699.0
1212.387771	700.5
1212.936683	695.5
1213.485539	699.75
1214.034339	701.75
1214.583082	701.5
1215.131768	703.75
1215.680398	702.75
1216.228971	701.0
1216.777488	702.0
1217.325948	700.0
1217.874352	701.25
1218.422699	698.75
1218.970989	700.5
1219.519223	707.75
1220.067401	702.75
1220.615522	705.75
1221.163586	703.75
1221.711594	703.0
1222.259546	704.5
1222.807441	700.5
1223.355279	700.0
1223.903061	702.25
1224.450787	704.25
1224.998455	701.25
1225.546068	703.5
1226.093624	704.75
1226.641123	700.5
1227.188567	703.5
1227.735953	702.25
1228.283283	701.0
1228.830557	702.5
1229.377774	698.5
1229.924935	705.5
1230.472039	704.0
1231.019087	703.5
1231.566078	703.0
1232.113013	699.75
1232.659892	699.25
1233.206714	701.0
1233.753479	696.75
1234.300188	705.25
1234.846841	704.5
1235.393438	706.0
1235.939978	702.75
1236.486461	703.0
1237.032888	701.25
1237.579259	704.0
1238.125573	706.0
1238.671831	699.5
1239.218033	703.25
1239.764178	705.25
1240.310267	698.0
1240.856299	699.0
1241.402275	700.5
1241.948194	700.25
1242.494058	699.75
1243.039865	700.25
1243.585615	705.75
1244.131309	703.25
1244.676947	700.0
1245.222528	698.0
1245.768053	697.0
1246.313522	698.5
1246.858935	704.0
1247.404291	697.0
1247.94959	700.5
1248.494834	700.25
1249.040021	705.25
1249.585152	703.75
1250.130226	702.5
1250.675244	702.75
1251.220206	703.75
1251.765111	699.0
1252.30996	696.5
1252.854753	700.75
1253.39949	698.5
1253.94417	707.5
1254.488794	700.75
1255.033362	711.25
1255.577873	701.25
1256.122328	699.0
1256.666727	701.5
1257.21107	697.5
1257.755356	700.0
1258.299586	702.0
1258.84376	699.5
1259.387877	705.25
1259.931939	707.0
1260.475944	701.75
1261.019892	699.75
1261.563785	700.0
1262.107621	698.25
1262.651401	706.0
1263.195125	701.0
1263.738793	705.5
1264.282404	706.0
1264.825959	709.75
1265.369458	715.0
1265.912901	708.0
1266.456287	702.5
1266.999618	700.25
1267.542892	699.75
1268.08611	697.25
1268.629271	699.5
1269.172377	695.75
1269.715426	696.25
1270.258419	704.5
1270.801356	700.25
1271.344237	701.0
1271.887061	699.25
1272.42983	701.0
1272.972542	698.75
1273.515198	698.25
1274.057798	698.25
1274.600342	702.25
1275.142829	697.25
1275.685261	698.0
1276.227636	698.25
1276.769955	700.5
1277.312218	702.25
1277.854425	695.5
1278.396576	694.5
1278.93867	700.0
1279.480709	701.0
1280.022691	700.25
1280.564618	701.25
1281.106488	702.0
1281.648302	702.25
1282.19006	699.75
1282.731761	704.75
1283.273407	703.25
1283.814997	715.75
1284.35653	732.0
1284.898008	817.0
1285.439429	957.25
1285.980794	847.25
1286.522104	732.5
1287.063357	718.5
1287.604554	706.25
1288.145695	704.25
1288.68678	705.25
1289.227808	699.0
1289.768781	695.0
1290.309698	696.75
1290.850559	702.75
1291.391363	699.0
1291.932112	698.25
1292.472804	700.0
1293.013441	700.5
1293.554022	701.75
1294.094546	700.0
1294.635014	700.0
1295.175427	695.5
1295.715783	696.0
1296.256084	695.5
1296.796328	696.75
1297.336516	700.5
1297.876649	699.75
1298.416725	701.75
1298.956745	697.75
1299.49671	696.25
1300.036618	699.25
1300.576471	699.25
1301.116267	693.5
1301.656007	697.0
1302.195692	698.25
1302.73532	694.25
1303.274893	697.25
1303.81441	701.5
1304.35387	698.25
1304.893275	699.75
1305.432623	694.5
1305.971916	699.0
1306.511153	692.75
1307.050334	697.5
1307.589459	698.0
1308.128528	695.75
1308.667541	697.25
1309.206498	698.75
1309.745399	695.0
1310.284244	704.5
1310.823033	697.5
1311.361767	694.0
1311.900444	698.25
1312.439066	698.75
1312.977632	699.5
1313.516141	692.5
1314.054595	699.0
1314.592993	696.25
1315.131335	700.5
1315.669622	697.25
1316.207852	697.75
1316.746026	700.75
1317.284145	698.25
1317.822208	694.75
1318.360215	697.75
1318.898166	699.5
1319.436061	693.75
1319.9739	694.25
1320.511683	695.75
1321.049411	697.75
1321.587082	699.0
1322.124698	698.75
1322.662258	695.75
1323.199762	698.5
1323.737211	692.0
1324.274603	692.5
1324.81194	698.75
1325.349221	695.5
1325.886446	697.75
1326.423615	697.5
1326.960728	700.0
1327.497786	695.75
1328.034788	698.75
1329.108624	712.0
1329.645458	698.25
1330.182237	692.0
1330.718959	701.0
1331.255626	695.5
1331.792238	695.75
1332.328793	696.5
1332.865293	697.5
1333.401737	697.0
1333.938125	695.0
1334.474457	695.0
1335.010734	692.0
1335.546954	693.0
1336.083119	699.25
1336.619229	693.0
1337.155282	696.0
1337.69128	694.75
1338.227222	697.75
1338.763109	696.25
1339.298939	697.75
1339.834714	702.75
1340.370433	698.5
1340.906097	696.75
1341.441704	700.75
1341.977256	696.25
1342.512752	692.5
1343.048193	699.0
1343.583578	695.5
1344.118907	696.0
1344.65418	695.5
1345.189398	693.75
1345.72456	696.75
1346.259667	699.75
1346.794717	694.25
1347.329712	699.0
1347.864652	696.25
1348.399535	695.0
1348.934363	693.25
1349.469135	698.0
1350.003852	698.0
1350.538513	694.75
1351.073118	697.5
1351.607668	696.0
1352.142162	698.5
1352.6766	695.75
1353.210983	698.0
1353.74531	698.0
1354.279582	695.25
1354.813797	697.0
1355.347957	694.5
1355.882062	693.0
1356.416111	694.5
1356.950104	699.25
1357.484042	695.0
1358.017924	695.75
1358.55175	694.0
1359.085521	696.25
1359.619236	702.5
1360.152896	697.25
1360.6865	697.25
1361.220048	697.0
1361.753541	695.25
1362.286978	695.75
1362.82036	698.5
1363.353686	691.75
1363.886957	695.75
1364.420172	693.75
1364.953331	696.5
1365.486435	692.25
1366.019483	699.25
1366.552476	696.75
1367.085413	692.75
1367.618294	692.0
1368.15112	693.5
1368.683891	692.25
1369.216606	699.25
1369.749265	697.0
1370.281869	701.5
1370.814417	703.75
1371.34691	695.25
1371.879347	695.5
1372.411729	700.75
1372.944055	694.25
1373.476326	699.5
1374.008541	692.5
1374.540701	698.25
1375.072805	696.25
1375.604854	695.5
1376.136847	698.75
1376.668784	695.5
1377.200667	693.5
1377.732493	698.25
1378.264265	691.5
1378.79598	697.5
1379.32764	695.5
1379.859245	698.5
1380.390795	694.5
1380.922288	695.25
1381.453727	699.0
1381.98511	694.75
1382.516437	695.75
1383.047709	697.5
1383.578926	700.0
1384.110087	697.75
1384.641192	698.0
1385.172242	703.0
1385.703237	702.5
1386.234177	702.25
1386.76506	706.25
1387.295889	715.5
1387.826662	762.75
1388.357379	972.5
1388.888042	1107.75
1389.418648	830.5
1389.9492	725.5
1390.479696	706.0
1391.010136	703.5
1391.540521	698.5
1392.070851	701.0
1392.601126	700.75
1393.131344	693.75
1393.661508	698.5
1394.191616	692.25
1394.721669	697.25
1395.251666	695.0
1395.781609	695.25
1396.311495	696.5
1396.841327	694.75
1397.371102	699.75
1397.900823	697.75
1398.430488	702.25
1398.960098	692.75
1399.489653	698.25
1400.019152	693.5
1400.548596	694.5
1401.077984	693.5
1401.607317	700.25
1402.136595	694.0
1402.665818	691.0
1403.194985	695.75
1403.724097	695.0
1404.253153	691.75
1404.782154	695.25
1405.3111	699.0
1405.839991	694.5
1406.368826	695.5
1406.897606	696.25
1407.426331	697.25
1407.955	691.0
1408.483614	705.0
1409.012173	703.75
1409.540676	715.75
1410.069124	728.5
1410.597517	725.25
1411.125855	707.25
1411.654137	700.25
1412.182364	696.0
1412.710536	693.25
1413.238653	696.25
1413.766714	695.0
1414.29472	696.0
1414.822671	695.5
1415.350566	693.75
1415.878407	698.25
1416.406192	694.0
1416.933921	694.25
1417.461596	693.25
1417.989215	690.75
1418.516779	696.25
1419.044288	698.0
1419.571742	691.75
1420.09914	695.0
1420.626483	690.25
1421.153771	692.5
1421.681004	692.75
1422.208182	697.0
1422.735304	694.5
1423.262371	695.75
1423.789383	691.5
1424.31634	695.25
1424.843241	696.0
1425.370088	695.25
1425.896879	697.5
1426.423615	694.75
1426.950296	697.0
1427.476921	694.0
1428.003492	698.5
1428.530007	694.25
1429.056467	693.25
1429.582872	692.75
1430.109222	692.25
1430.635517	698.0
1431.161756	692.0
1431.687941	695.0
1432.21407	696.25
1432.740144	695.0
1433.266163	688.75
1433.792127	690.75
1434.318035	692.0
1434.843889	697.5
1435.369687	692.25
1435.895431	697.25
1436.421119	694.5
1436.946752	695.5
1437.47233	697.5
1437.997853	692.75
1438.52332	692.5
1439.048733	691.5
1439.57409	693.0
1440.099393	698.0
1440.62464	697.25
1441.149832	695.5
1441.67497	692.25
1442.200052	694.0
1442.725079	696.75
1443.250051	690.5
1443.774967	693.5
1444.299829	693.75
1444.824636	693.5
1445.349388	689.5
1445.874084	693.25
1446.398726	694.75
1446.923312	695.0
1447.447844	694.0
1447.97232	696.5
1448.496741	696.75
1449.021108	696.75
1449.545419	691.5
1450.069675	692.5
1450.593876	691.25
1451.118022	690.75
1451.642114	692.5
1452.16615	696.25
1452.690131	692.0
1453.214057	694.75
1453.737928	692.25
1454.261744	689.75
1454.785505	692.75
1455.309211	691.75
1455.832862	695.0
1456.356458	695.5
1456.879999	686.25
1457.403485	694.5
1457.926917	693.75
1458.450293	697.0
1458.973614	696.25
1459.49688	694.5
1460.020091	694.75
1460.543247	692.25
1461.066349	694.5
1461.589395	692.25
1462.112386	691.25
1462.635323	697.75
1463.158204	694.5
1463.681031	692.25
1464.203802	697.75
1464.726519	694.0
1465.249181	697.25
1465.771787	695.0
1466.294339	695.25
1466.816836	693.5
1467.339278	697.25
1467.861665	692.0
1468.383997	692.5
1468.906274	692.0
1469.428496	692.75
1469.950664	698.0
1470.472776	695.5
1470.994834	696.25
1471.516837	694.25
1472.038784	692.75
1472.560677	690.0
1473.082515	692.5
1473.604298	695.25
1474.126026	691.75
1474.6477	691.75
1475.169318	688.25
1475.690882	689.75
1476.212391	692.5
1476.733844	690.25
1477.255243	687.75
1477.776588	693.5
1478.297877	694.75
1478.819111	688.0
1479.340291	690.5
1479.861416	693.75
1480.382485	696.75
1480.9035	688.75
1481.424461	690.75
1481.945366	695.25
1482.466217	697.25
1482.987012	692.0
1483.507753	690.5
1484.028439	688.5
1484.54907	686.5
1485.069647	691.25
1485.590168	696.5
1486.110635	693.0
1486.631047	691.25
1487.151404	691.5
1487.671707	689.5
1488.191955	692.25
1488.712147	690.75
1489.232285	690.5
1489.752369	692.0
1490.272397	691.25
1490.792371	690.25
1491.31229	689.25
1491.832154	691.5
1492.351963	691.0
1492.871718	692.5
1493.391418	692.75
1493.911063	690.25
1494.430653	690.75
1494.950189	693.75
1495.46967	692.0
1495.989096	695.75
1496.508467	691.5
1497.027784	691.0
1497.547045	694.0
1498.066253	688.25
1498.585405	689.75
1499.104503	691.5
1499.623546	690.5
1500.142534	696.75
1500.661467	689.75
1501.180346	689.75
1501.69917	689.5
1502.21794	692.25
1502.736654	688.5
1503.255314	696.25
1503.77392	692.75
1504.29247	690.75
1504.810966	686.75
1505.329408	692.0
1505.847794	694.0
1506.366126	690.0
1506.884403	691.25
1507.402626	691.25
1507.920794	690.5
1508.438907	686.0
1508.956965	688.0
1509.474969	689.5
1509.992918	691.5
1510.510813	696.75
1511.028653	694.5
1511.546438	690.75
1512.064169	690.25
1512.581845	690.25
1513.099466	689.5
1513.617033	689.75
1514.134545	693.5
1514.652002	685.0
1515.169405	693.0
1515.686753	690.5
1516.204047	694.25
1516.721286	687.5
1517.23847	687.5
1517.7556	688.5
1518.272675	692.0
1518.789695	691.25
1519.306661	692.25
1519.823573	686.75
1520.340429	690.75
1520.857232	688.25
1521.373979	690.5
1521.890672	685.0
1522.407311	689.0
1522.923895	691.75
1523.440424	690.0
1523.956899	686.5
1524.473319	689.75
1524.989684	689.0
1525.505995	689.25
1526.022252	691.5
1526.538454	690.25
1527.054601	691.0
1527.570694	687.25
1528.086732	691.75
1528.602716	691.75
1529.118645	689.75
1529.63452	689.25
1530.15034	694.25
1530.666106	692.0
1531.181817	690.5
1531.697473	689.5
1532.213075	690.25
1532.728623	688.75
1533.244116	690.25
1533.759554	692.0
1534.274938	693.25
1534.790268	693.25
1535.305543	689.75
1535.820764	692.0
1536.33593	691.25
1536.851041	691.75
1537.366098	692.0
1537.881101	688.25
1538.396049	688.5
1538.910943	688.75
1539.425782	687.75
1539.940567	688.25
1540.455297	688.0
1540.969973	688.5
1541.484594	689.25
1541.999161	687.0
1542.513673	689.5
1543.028131	692.0
1543.542535	690.75
1544.056884	690.75
1544.571179	687.5
1545.085419	688.75
1545.599605	686.25
1546.113736	690.75
1546.627813	691.5
1547.141836	690.25
1547.655804	688.5
1548.169718	688.0
1548.683577	686.25
1549.197382	690.0
1549.711132	691.0
1550.224829	688.25
1550.73847	690.75
1551.252058	690.5
1551.76559	687.25
1552.279069	691.5
1552.792493	693.75
1553.305863	691.25
1553.819178	689.0
1554.332439	690.75
1554.845646	689.25
1555.358798	688.75
1555.871896	692.25
1556.38494	688.5
1556.897929	690.5
1557.410864	689.75
1557.923744	690.0
1558.436571	691.25
1558.949342	690.75
1559.46206	692.75
1559.974723	688.75
1560.487332	688.5
1560.999886	694.75
1561.512386	687.5
1562.024832	688.25
1562.537224	692.0
1563.049561	690.75
1563.561844	688.75
1564.074072	688.25
1564.586247	686.5
1565.098367	684.75
1565.610432	688.5
1566.122444	689.0
1566.634401	687.0
1567.146304	692.5
1567.658152	689.25
1568.169946	687.75
1568.681686	687.0
1569.193372	692.25
1569.705003	692.0
1570.21658	691.0
1570.728103	690.0
1571.239572	689.25
1571.750986	688.25
1572.262346	686.25
1572.773652	688.0
1573.284904	689.0
1573.796101	687.25
1574.307244	688.75
1574.818333	687.0
1575.329367	689.75
1575.840348	689.75
1576.351274	692.75
1576.862146	688.0
1577.372964	688.25
1577.883727	693.5
1578.394436	688.0
1578.905091	691.0
1579.415692	688.25
1579.926239	700.25
1580.436731	686.25
1580.947169	685.75
1581.457553	689.5
1581.967883	686.25
1582.478159	691.75
1582.98838	687.5
1583.498548	693.75
1584.008661	689.5
1584.51872	689.5
1585.028725	687.75
1585.538675	688.25
1586.048572	690.25
1586.558414	688.75
1587.068202	689.5
1587.577936	688.75
