1037.211545	714.4000244
1037.778412	709.5999756
1038.345221	707.2000122
1038.911973	709.0
1039.478666	709.7999878
1040.045302	705.7999878
1040.61188	705.4000244
1041.178401	704.2000122
1041.744863	704.4000244
1042.311268	701.0
1042.877615	704.7999878
1043.443905	704.4000244
1044.010136	706.2000122
1044.57631	701.2000122
1045.142426	705.4000244
1045.708484	703.2000122
1046.274485	701.2000122
1046.840427	702.4000244
1047.406312	701.5999756
1047.97214	702.0
1048.537909	700.7999878
1049.103621	697.4000244
1049.669275	700.2000122
1050.234871	698.0
1050.80041	704.2000122
1051.365891	697.0
1051.931314	698.5999756
1052.49668	698.0
1053.061988	699.2000122
1053.627238	699.7999878
1054.19243	700.2000122
1054.757565	698.0
1055.322642	695.4000244
1055.887661	695.2000122
1056.452623	704.4000244
1057.017527	697.4000244
1057.582374	694.2000122
1058.147162	699.7999878
1058.711893	698.5999756
1059.276567	695.7999878
1059.841183	695.7999878
1060.405741	694.7999878
1060.970241	698.5999756
1061.534684	697.5999756
1062.099069	695.2000122
1062.663397	696.4000244
1063.227667	698.0
1063.791879	695.4000244
1064.356034	694.7999878
1064.920131	701.4000244
1065.48417	694.4000244
1066.048152	694.7999878
1066.612076	696.0
1067.175943	695.0
1067.739752	696.5999756
1068.303504	693.0
1068.867197	691.0
1069.430834	692.4000244
1069.994413	694.2000122
1070.557934	695.4000244
1071.121397	693.7999878
1071.684803	692.0
1072.248152	698.0
1072.811443	696.0
1073.374676	696.4000244
1073.937852	695.2000122
1074.50097	697.4000244
1075.064031	691.7999878
1075.627034	695.2000122
1076.18998	695.0
1076.752868	693.5999756
1077.315698	696.0
1077.878471	691.5999756
1078.441187	695.4000244
1079.003845	692.7999878
1079.566446	693.0
1080.128989	690.2000122
1080.691474	694.2000122
1081.253902	692.7999878
1081.816273	694.2000122
1082.378586	697.5999756
1082.940841	697.0
1083.503039	699.0
1084.06518	694.7999878
1084.627263	697.4000244
1085.189289	689.7999878
1085.751257	691.5999756
1086.313168	694.4000244
1086.875021	694.4000244
1087.436817	693.2000122
1087.998555	695.7999878
1088.560236	691.4000244
1089.12186	693.2000122
1089.683426	694.5999756
1090.244934	693.5999756
1090.806386	693.5999756
1091.367779	693.7999878
1091.929116	698.0
1092.490395	692.0
1093.051616	693.5999756
1093.61278	695.2000122
1094.173887	693.2000122
1094.734936	693.5999756
1095.295928	693.2000122
1095.856863	695.7999878
1096.41774	693.0
1096.97856	695.5999756
1097.539322	698.5999756
1098.100027	695.7999878
1098.660675	694.4000244
1099.221265	692.4000244
1099.781798	690.4000244
1100.342274	694.5999756
1100.902692	692.5999756
1101.463053	696.2000122
1102.023356	694.7999878
1102.583602	695.4000244
1103.143791	693.7999878
1103.703922	693.0
1104.263996	695.5999756
1104.824013	694.2000122
1105.383973	697.2000122
1105.943875	697.5999756
1106.50372	694.2000122
1107.063507	692.0
1107.623237	695.5999756
1108.18291	693.0
1108.742526	695.4000244
1109.302084	692.2000122
1109.861585	694.5999756
1110.421029	694.5999756
1110.980416	700.4000244
1111.539745	697.0
1112.099017	697.0
1112.658231	690.4000244
1113.217389	696.2000122
1113.776489	696.0
1114.335531	698.4000244
1114.894517	695.7999878
1115.453445	694.4000244
1116.012316	697.7999878
1116.57113	694.7999878
1117.129887	694.2000122
1117.688586	695.2000122
1118.247228	695.7999878
1118.805813	694.4000244
1119.364341	695.0
1119.922811	693.7999878
1120.481224	693.0
1121.03958	692.2000122
1121.597879	690.0
1122.156121	692.4000244
1122.714305	691.7999878
1123.272432	692.5999756
1123.830502	695.7999878
1124.388515	695.7999878
1124.946471	691.5999756
1125.504369	693.7999878
1126.062211	690.4000244
1126.619995	697.2000122
1127.177722	694.2000122
1127.735391	693.5999756
1128.293004	701.2000122
1128.850559	695.7999878
1129.408058	697.0
1129.965499	699.0
1130.522883	693.0
1131.08021	692.0
1131.637479	692.7999878
1132.194692	694.2000122
1132.751847	695.5999756
1133.308946	693.5999756
1133.865987	690.7999878
1134.422971	694.2000122
1134.979898	692.2000122
1135.536768	694.2000122
1136.09358	693.4000244
1136.650336	694.2000122
1137.207035	691.7999878
1137.763676	693.5999756
1138.32026	694.7999878
1138.876788	693.4000244
1139.433258	693.0
1139.989671	691.2000122
1140.546027	696.4000244
1141.102326	686.4000244
1141.658568	695.2000122
1142.214753	692.7999878
1142.770881	695.7999878
1143.326951	694.0
1143.882965	695.0
1144.438922	692.7999878
1144.994821	693.4000244
1145.550664	695.2000122
1146.106449	693.7999878
1146.662178	693.7999878
1147.217849	696.0
1147.773464	697.0
1148.329021	698.2000122
1148.884521	696.5999756
1149.439965	696.5999756
1149.995351	704.4000244
1150.55068	724.2000122
1151.105953	714.7999878
1151.661168	694.5999756
1152.216326	695.5999756
1152.771428	692.4000244
1153.326472	694.4000244
1153.88146	697.0
1154.43639	691.2000122
1154.991263	697.4000244
1155.54608	695.5999756
1156.100839	695.5999756
1156.655542	691.0
1157.210188	692.5999756
1157.764776	692.7999878
1158.319308	694.2000122
1158.873783	693.2000122
1159.428201	693.7999878
1159.982561	692.4000244
1160.536865	694.7999878
1161.091112	694.2000122
1161.645302	691.7999878
1162.199436	692.7999878
1162.753512	694.2000122
1163.307531	695.7999878
1163.861494	691.5999756
1164.415399	693.5999756
1164.969248	693.0
1165.523039	691.7999878
1166.076774	696.2000122
1166.630452	695.2000122
1167.184073	696.0
1167.737637	693.4000244
1168.291144	693.5999756
1168.844595	693.2000122
1169.397988	694.5999756
1169.951325	692.2000122
1170.504605	692.7999878
1171.057828	695.2000122
1171.610994	697.4000244
1172.164103	692.2000122
1172.717155	694.0
1173.270151	690.7999878
1173.823089	689.5999756
1174.375971	693.2000122
1174.928796	690.5999756
1175.481564	691.4000244
1176.034276	697.7999878
1176.58693	694.2000122
1177.139528	694.4000244
1177.692069	694.0
1178.244553	695.0
1178.79698	693.7999878
1179.34935	697.5999756
1179.901664	693.7999878
1180.453921	694.4000244
1181.006121	694.2000122
1181.558264	692.2000122
1182.110351	693.7999878
1182.66238	691.7999878
1183.214353	690.7999878
1183.76627	695.5999756
1184.318129	692.2000122
1184.869932	698.5999756
1185.421677	698.2000122
1185.973367	695.0
1186.524999	699.0
1187.076574	693.5999756
1187.628093	694.5999756
1188.730961	692.5999756
1189.282309	692.5999756
1189.833601	689.0
1190.384837	693.4000244
1190.936015	695.7999878
1191.487137	693.7999878
1192.038202	692.4000244
1192.58921	694.7999878
1193.140162	693.7999878
1193.691057	690.7999878
1194.241895	690.5999756
1194.792676	690.4000244
1195.343401	691.5999756
1195.894069	696.5999756
1196.444681	690.4000244
1196.995235	692.5999756
1197.545733	692.7999878
1198.096175	693.5999756
1198.646559	693.2000122
1199.196887	691.4000244
1199.747159	688.7999878
1200.297374	694.4000244
1200.847532	693.2000122
1201.397633	692.5999756
1201.947678	703.4000244
1203.047598	700.0
1203.597472	694.5999756
1204.147291	692.0
1204.697052	691.0
1205.246757	692.0
1205.796406	691.0
1206.345997	688.0
1206.895532	694.5999756
1207.445011	692.0
1207.994433	695.0
1208.543798	697.2000122
1209.093107	692.2000122
1209.642359	691.5999756
1210.191554	696.7999878
1210.740693	696.4000244
1211.289776	691.0
1211.838801	694.2000122
1212.387771	689.7999878
1212.936683	695.5999756
1213.485539	696.0
1214.034339	696.7999878
1214.583082	691.5999756
1215.131768	692.4000244
1215.680398	693.2000122
1216.228971	697.5999756
1216.777488	696.7999878
1217.325948	692.2000122
1217.874352	695.7999878
1218.422699	696.4000244
1218.970989	692.4000244
1219.519223	695.7999878
1220.067401	699.2000122
1220.615522	691.7999878
1221.163586	695.0
1221.711594	698.7999878
1222.259546	695.5999756
1222.807441	695.5999756
1223.355279	693.4000244
1223.903061	695.4000244
1224.450787	689.5999756
1224.998455	690.5999756
1225.546068	695.5999756
1226.093624	692.7999878
1226.641123	695.5999756
1227.188567	693.5999756
1227.735953	695.7999878
1228.283283	691.0
1228.830557	692.0
1229.377774	693.4000244
1229.924935	698.7999878
1230.472039	694.0
1231.019087	690.5999756
1231.566078	696.0
1232.113013	693.2000122
1232.659892	694.5999756
1233.206714	695.7999878
1233.753479	697.0
1234.300188	692.4000244
1234.846841	693.2000122
1235.393438	694.5999756
1235.939978	690.5999756
1236.486461	694.0
1237.032888	690.2000122
1237.579259	690.7999878
1238.125573	697.7999878
1238.671831	693.0
1239.218033	696.0
1239.764178	694.2000122
1240.310267	690.2000122
1240.856299	692.5999756
1241.402275	696.0
1241.948194	691.4000244
1242.494058	692.7999878
1243.039865	697.7999878
1243.585615	691.4000244
1244.131309	694.7999878
1244.676947	697.4000244
1245.222528	692.2000122
1245.768053	695.4000244
1246.313522	691.2000122
1246.858935	695.2000122
1247.404291	697.0
1247.94959	694.4000244
1248.494834	693.0
1249.040021	694.5999756
1249.585152	691.7999878
1250.130226	693.2000122
1250.675244	695.5999756
1251.220206	694.2000122
1251.765111	689.2000122
1252.30996	695.2000122
1252.854753	697.2000122
1253.39949	692.7999878
1253.94417	688.2000122
1254.488794	694.7999878
1255.033362	699.4000244
1255.577873	694.2000122
1256.122328	692.0
1256.666727	695.7999878
1257.21107	690.7999878
1257.755356	693.4000244
1258.299586	692.0
1258.84376	693.7999878
1259.387877	695.4000244
1259.931939	696.2000122
1260.475944	691.2000122
1261.019892	693.0
1261.563785	694.2000122
1262.107621	690.7999878
1262.651401	691.7999878
1263.195125	699.0
1263.738793	695.0
1264.282404	706.0
1264.825959	709.7999878
1265.369458	715.0
1265.912901	707.5999756
1266.456287	694.2000122
1266.999618	693.5999756
1267.542892	696.0
1268.08611	693.5999756
1268.629271	693.5999756
1269.172377	691.5999756
1269.715426	692.5999756
1270.258419	688.7999878
1270.801356	694.7999878
1271.344237	691.0
1271.887061	689.2000122
1272.42983	693.4000244
1272.972542	690.4000244
1273.515198	687.7999878
1274.057798	687.5999756
1274.600342	689.4000244
1275.142829	690.7999878
1275.685261	692.0
1276.227636	691.4000244
1276.769955	695.5999756
1277.312218	690.2000122
1277.854425	694.4000244
1278.396576	691.7999878
1278.93867	688.7999878
1279.480709	693.4000244
1280.022691	692.5999756
1280.564618	695.7999878
1281.106488	696.7999878
1281.648302	694.7999878
1282.19006	695.7999878
1282.731761	701.5999756
1283.273407	705.5999756
1283.814997	717.4000244
1284.35653	753.2000122
1284.898008	889.7999878
1285.439429	1033.400024
1285.980794	863.5999756
1286.522104	738.4000244
1287.063357	711.2000122
1287.604554	700.7999878
1288.145695	697.0
1288.68678	696.5999756
1289.227808	692.0
1289.768781	696.0
1290.309698	695.2000122
1290.850559	693.4000244
1291.391363	693.7999878
1291.932112	693.4000244
1292.472804	694.2000122
1293.013441	691.5999756
1293.554022	691.7999878
1294.094546	694.0
1294.635014	690.5999756
1295.175427	694.0
1295.715783	691.4000244
1296.256084	692.0
1296.796328	691.4000244
1297.336516	690.7999878
1297.876649	693.0
1298.416725	690.5999756
1298.956745	692.7999878
1299.49671	687.7999878
1300.036618	695.4000244
1300.576471	693.5999756
1301.116267	693.2000122
1301.656007	694.5999756
1302.195692	695.2000122
1302.73532	691.2000122
1303.274893	694.5999756
1303.81441	692.4000244
1304.35387	691.0
1304.893275	689.7999878
1305.432623	692.5999756
1305.971916	692.2000122
1306.511153	691.4000244
1307.050334	695.7999878
1307.589459	691.0
1308.128528	691.4000244
1308.667541	689.7999878
1309.206498	688.7999878
1309.745399	688.2000122
1310.284244	693.0
1310.823033	694.2000122
1311.361767	691.2000122
1311.900444	692.7999878
1312.439066	692.5999756
1312.977632	694.4000244
1313.516141	692.0
1314.054595	690.5999756
1314.592993	692.4000244
1315.131335	687.4000244
1315.669622	689.7999878
1316.207852	691.5999756
1316.746026	691.0
1317.284145	691.2000122
1317.822208	690.2000122
1318.360215	690.5999756
1318.898166	694.2000122
1319.436061	691.7999878
1319.9739	692.2000122
1320.511683	693.7999878
1321.049411	688.7999878
1321.587082	692.0
1322.124698	692.5999756
1322.662258	686.2000122
1323.199762	689.2000122
1323.737211	686.4000244
1324.274603	690.7999878
1324.81194	691.5999756
1325.349221	689.5999756
1325.886446	690.5999756
1326.423615	688.4000244
1326.960728	687.0
1327.497786	691.5999756
1328.034788	690.0
1328.571734	691.4000244
1329.108624	688.4000244
1329.645458	690.4000244
1330.182237	689.2000122
1330.718959	693.0
1331.255626	691.7999878
1331.792238	691.4000244
1332.328793	689.2000122
1332.865293	692.7999878
1333.401737	691.2000122
1333.938125	691.4000244
1334.474457	689.4000244
1335.010734	688.5999756
1335.546954	687.5999756
1336.083119	686.7999878
1336.619229	689.0
1337.155282	690.0
1337.69128	690.2000122
1338.227222	690.4000244
1338.763109	689.7999878
1339.298939	689.7999878
1339.834714	688.4000244
1340.370433	690.2000122
1340.906097	687.4000244
1341.441704	686.2000122
1341.977256	688.7999878
1342.512752	686.7999878
1343.048193	688.2000122
1343.583578	694.7999878
1344.118907	686.2000122
1344.65418	691.0
1345.189398	688.0
1345.72456	690.0
1346.259667	687.4000244
1346.794717	689.2000122
1347.329712	693.5999756
1347.864652	690.0
1348.399535	690.7999878
1348.934363	690.7999878
1349.469135	689.7999878
1350.003852	688.4000244
1350.538513	689.2000122
1351.073118	691.5999756
1351.607668	693.5999756
1352.142162	687.7999878
1352.6766	689.2000122
1353.210983	690.2000122
1353.74531	690.0
1354.279582	690.4000244
1354.813797	687.5999756
1355.347957	690.4000244
1355.882062	690.0
1356.416111	690.7999878
1356.950104	687.7999878
1357.484042	686.0
1358.017924	686.7999878
1358.55175	691.2000122
1359.085521	688.7999878
1359.619236	691.4000244
1360.152896	691.5999756
1360.6865	689.5999756
1361.220048	691.0
1361.753541	690.5999756
1362.286978	688.0
1362.82036	688.0
1363.353686	688.4000244
1363.886957	689.4000244
1364.420172	685.4000244
1364.953331	688.0
1365.486435	692.0
1366.019483	690.0
1366.552476	690.4000244
1367.085413	690.4000244
1367.618294	689.4000244
1368.15112	692.5999756
1368.683891	691.5999756
1369.216606	689.2000122
1369.749265	694.2000122
1370.281869	696.2000122
1370.814417	693.4000244
1371.34691	690.2000122
1371.879347	693.4000244
1372.411729	689.7999878
1372.944055	685.4000244
1373.476326	691.7999878
1374.008541	690.5999756
1374.540701	689.2000122
1375.072805	689.4000244
1375.604854	688.7999878
1376.136847	690.0
1376.668784	691.4000244
1377.200667	689.7999878
1377.732493	687.7999878
1378.264265	688.0
1378.79598	693.4000244
1379.32764	690.5999756
1379.859245	695.4000244
1380.390795	688.7999878
1380.922288	688.0
1381.453727	688.5999756
1381.98511	688.0
1382.516437	688.0
1383.047709	689.2000122
1383.578926	690.2000122
1384.110087	694.2000122
1384.641192	692.4000244
1385.172242	694.5999756
1385.703237	700.2000122
1386.234177	702.0
1386.76506	709.7999878
1387.295889	722.4000244
1387.826662	799.4000244
1388.357379	1117.400024
1388.888042	1249.400024
1389.418648	851.4000244
1389.9492	729.2000122
1390.479696	702.4000244
1391.010136	701.4000244
1391.540521	695.0
1392.070851	695.2000122
1392.601126	696.4000244
1393.131344	691.5999756
1393.661508	694.7999878
1394.191616	689.2000122
1394.721669	691.0
1395.251666	687.4000244
1395.781609	693.2000122
1396.311495	695.0
1396.841327	690.4000244
1397.371102	686.7999878
1397.900823	691.5999756
1398.430488	689.0
1398.960098	690.7999878
1399.489653	685.5999756
1400.019152	690.0
1400.548596	689.0
1401.077984	689.5999756
1401.607317	686.5999756
1402.136595	689.0
1402.665818	689.7999878
1403.194985	687.4000244
1403.724097	690.0
1404.253153	690.5999756
1404.782154	689.7999878
1405.3111	691.0
1405.839991	691.7999878
1406.368826	687.0
1406.897606	693.5999756
1407.426331	689.5999756
1407.955	691.7999878
1408.483614	691.5999756
1409.012173	697.2000122
1409.540676	717.7999878
1410.069124	728.7999878
1410.597517	724.0
1411.125855	696.4000244
1411.654137	698.5999756
1412.182364	692.7999878
1412.710536	691.4000244
1413.238653	689.7999878
1413.766714	688.4000244
1414.29472	690.0
1414.822671	685.0
1415.350566	689.5999756
1415.878407	689.4000244
1416.406192	688.2000122
1416.933921	685.2000122
1417.461596	685.4000244
1417.989215	687.2000122
1418.516779	688.2000122
1419.044288	689.4000244
1419.571742	686.2000122
1420.09914	691.2000122
1420.626483	685.4000244
1421.153771	690.0
1421.681004	686.7999878
1422.208182	687.4000244
1422.735304	688.2000122
1423.262371	690.0
1423.789383	687.2000122
1424.31634	688.4000244
1424.843241	685.7999878
1425.370088	692.2000122
1425.896879	692.2000122
1426.423615	687.4000244
1426.950296	687.7999878
1427.476921	690.0
1428.003492	690.0
1428.530007	687.5999756
1429.056467	689.4000244
1429.582872	689.2000122
1430.109222	686.0
1430.635517	691.0
1431.161756	691.0
1431.687941	686.5999756
1432.21407	687.0
1432.740144	689.7999878
1433.266163	684.7999878
1433.792127	687.4000244
1434.318035	689.0
1434.843889	685.4000244
1435.369687	688.7999878
1435.895431	685.4000244
1436.421119	687.0
1436.946752	688.0
1437.47233	686.5999756
1437.997853	686.0
1438.52332	686.4000244
1439.048733	687.5999756
1439.57409	687.0
1440.099393	685.7999878
1440.62464	687.7999878
1441.149832	684.7999878
1441.67497	688.2000122
1442.200052	688.0
1442.725079	688.7999878
1443.250051	686.2000122
1443.774967	689.2000122
1444.299829	685.4000244
1444.824636	688.7999878
1445.349388	684.4000244
1445.874084	686.7999878
1446.398726	687.4000244
1446.923312	687.5999756
1447.447844	690.2000122
1447.97232	694.4000244
1448.496741	689.7999878
1449.021108	685.2000122
1449.545419	684.5999756
1450.069675	683.5999756
1450.593876	685.5999756
1451.118022	689.5999756
1451.642114	686.7999878
1452.16615	686.0
1452.690131	692.7999878
1453.214057	687.2000122
1453.737928	685.7999878
1454.261744	687.4000244
1454.785505	687.2000122
1455.309211	688.0
1455.832862	687.7999878
1456.356458	690.5999756
1456.879999	687.2000122
1457.403485	686.7999878
1457.926917	690.2000122
1458.450293	686.5999756
1458.973614	684.7999878
1459.49688	688.0
1460.020091	684.7999878
1460.543247	688.0
1461.066349	688.4000244
1461.589395	684.5999756
1462.112386	688.5999756
1462.635323	689.2000122
1463.158204	689.2000122
1463.681031	689.2000122
1464.203802	684.7999878
1464.726519	686.7999878
1465.249181	687.0
1465.771787	687.7999878
1466.294339	685.5999756
1466.816836	687.2000122
1467.339278	688.4000244
1467.861665	688.7999878
1468.383997	683.7999878
1468.906274	690.4000244
1469.428496	687.0
1469.950664	684.2000122
1470.472776	685.2000122
1470.994834	683.7999878
1471.516837	687.5999756
1472.038784	688.2000122
1472.560677	685.0
1473.082515	687.0
1473.604298	686.4000244
1474.126026	683.4000244
1474.6477	683.0
1475.169318	684.0
1475.690882	684.5999756
1476.212391	685.5999756
1476.733844	687.0
1477.255243	688.4000244
1477.776588	686.7999878
1478.297877	684.5999756
1478.819111	685.4000244
1479.340291	682.2000122
1479.861416	687.0
1480.382485	683.7999878
1480.9035	687.5999756
1481.424461	684.2000122
1481.945366	684.5999756
1482.466217	688.7999878
1482.987012	689.7999878
1483.507753	686.4000244
1484.028439	684.0
1484.54907	684.0
1485.069647	684.0
1485.590168	683.5999756
1486.110635	685.0
1486.631047	683.2000122
1487.151404	684.0
1487.671707	685.7999878
1488.191955	688.0
1488.712147	682.2000122
1489.232285	680.7999878
1489.752369	684.7999878
1490.272397	683.5999756
1490.792371	685.7999878
1491.31229	685.2000122
1491.832154	684.4000244
1492.351963	684.2000122
1492.871718	682.4000244
1493.391418	684.2000122
1493.911063	682.5999756
1494.430653	685.2000122
1494.950189	689.0
1495.46967	682.5999756
1495.989096	685.2000122
1496.508467	687.2000122
1497.027784	684.0
1497.547045	683.0
1498.066253	685.5999756
1498.585405	683.5999756
1499.104503	686.0
1499.623546	682.4000244
1500.142534	685.2000122
1500.661467	687.0
1501.180346	684.7999878
1501.69917	684.0
1502.21794	681.7999878
1502.736654	682.7999878
1503.255314	684.2000122
1503.77392	684.5999756
1504.29247	686.4000244
1504.810966	681.4000244
1505.329408	688.5999756
1505.847794	693.7999878
1506.366126	682.2000122
1506.884403	680.4000244
1507.402626	682.0
1507.920794	685.0
1508.438907	683.5999756
1508.956965	682.5999756
1509.474969	686.4000244
1509.992918	684.4000244
1510.510813	683.2000122
1511.028653	680.0
1511.546438	683.4000244
1512.064169	684.2000122
1512.581845	683.2000122
1513.099466	686.0
1513.617033	684.2000122
1514.134545	684.4000244
1514.652002	685.4000244
1515.169405	683.0
1515.686753	687.2000122
1516.204047	685.0
1516.721286	681.4000244
1517.23847	682.7999878
1517.7556	686.0
1518.272675	683.2000122
1518.789695	683.5999756
1519.306661	687.5999756
1519.823573	682.5999756
1520.340429	680.7999878
1520.857232	686.0
1521.373979	682.2000122
1521.890672	684.2000122
1522.407311	683.4000244
1522.923895	681.7999878
1523.440424	682.7999878
1523.956899	680.7999878
1524.473319	685.2000122
1524.989684	685.4000244
1525.505995	686.0
1526.022252	683.0
1526.538454	685.4000244
1527.054601	686.0
1527.570694	684.4000244
1528.086732	683.2000122
1528.602716	686.4000244
1529.118645	683.4000244
1529.63452	683.0
1530.15034	685.0
1530.666106	684.4000244
1531.181817	686.7999878
1531.697473	683.7999878
1532.213075	682.2000122
1532.728623	680.7999878
1533.244116	686.2000122
1533.759554	684.0
1534.274938	682.5999756
1534.790268	682.4000244
1535.305543	683.4000244
1535.820764	683.5999756
1536.33593	680.4000244
1536.851041	680.4000244
1537.366098	683.4000244
1537.881101	682.4000244
1538.396049	681.7999878
1538.910943	680.5999756
1539.425782	682.2000122
1539.940567	685.7999878
1540.455297	680.5999756
1540.969973	686.4000244
1541.484594	684.2000122
1541.999161	685.0
1542.513673	686.4000244
1543.028131	682.5999756
1543.542535	681.7999878
1544.056884	685.5999756
1544.571179	684.2000122
1545.085419	683.2000122
1545.599605	682.5999756
1546.113736	683.4000244
1546.627813	683.2000122
1547.141836	681.5999756
1547.655804	682.0
1548.169718	681.2000122
1548.683577	681.0
1549.197382	682.2000122
1549.711132	686.7999878
1550.224829	681.4000244
1550.73847	686.2000122
1551.252058	682.5999756
1551.76559	680.0
1552.279069	682.7999878
1552.792493	684.2000122
1553.305863	686.7999878
1553.819178	681.5999756
1554.332439	685.4000244
1554.845646	683.7999878
1555.358798	685.4000244
1555.871896	682.5999756
1556.38494	685.4000244
1556.897929	681.5999756
1557.410864	687.2000122
1557.923744	681.4000244
1558.436571	682.4000244
1558.949342	681.0
1559.46206	682.4000244
1559.974723	680.5999756
1560.487332	682.0
1560.999886	684.2000122
1561.512386	685.5999756
1562.024832	685.7999878
1562.537224	684.5999756
1563.049561	681.5999756
1563.561844	683.5999756
1564.074072	679.2000122
1564.586247	681.0
1565.098367	680.5999756
1565.610432	685.5999756
1566.122444	683.4000244
1566.634401	682.7999878
1567.146304	683.0
1567.658152	684.7999878
1568.169946	683.0
1568.681686	684.5999756
1569.193372	683.5999756
1569.705003	687.4000244
1570.21658	683.4000244
1570.728103	681.4000244
1571.239572	681.2000122
1571.750986	685.0
1572.262346	682.5999756
1572.773652	679.5999756
1573.284904	681.0
1573.796101	681.4000244
1574.307244	682.4000244
1574.818333	683.7999878
1575.329367	680.5999756
1575.840348	686.7999878
1576.351274	681.0
1576.862146	680.2000122
1577.372964	682.5999756
1577.883727	682.0
1578.394436	683.4000244
1578.905091	682.2000122
1579.415692	683.7999878
1579.926239	685.0
1580.436731	684.0
1580.947169	682.0
1581.457553	687.4000244
1581.967883	684.5999756
1582.478159	682.0
1582.98838	678.7999878
1583.498548	682.0
1584.008661	682.7999878
1584.51872	682.7999878
1585.028725	679.7999878
1585.538675	683.4000244
1586.048572	684.4000244
1586.558414	686.2000122
1587.068202	679.5999756
1587.577936	682.0
