1037.211545	694.0
1037.778412	690.0
1038.345221	687.4000244
1038.911973	686.4000244
1039.478666	692.0
1040.045302	686.0
1040.61188	686.0
1041.178401	685.5999756
1041.744863	687.4000244
1042.311268	687.5999756
1042.877615	685.5999756
1043.443905	689.2000122
1044.010136	686.5999756
1044.57631	687.2000122
1045.142426	686.4000244
1045.708484	682.5999756
1046.274485	680.5999756
1046.840427	682.7999878
1047.406312	679.4000244
1047.97214	684.0
1048.537909	681.4000244
1049.103621	681.5999756
1049.669275	681.4000244
1050.234871	684.5999756
1050.80041	681.7999878
1051.365891	682.2000122
1051.931314	683.4000244
1052.49668	684.7999878
1053.061988	680.2000122
1053.627238	682.4000244
1054.19243	682.0
1054.757565	682.0
1055.322642	682.4000244
1055.887661	679.2000122
1056.452623	680.4000244
1057.017527	680.2000122
1057.582374	680.5999756
1058.147162	682.5999756
1058.711893	683.4000244
1059.276567	678.5999756
1059.841183	680.7999878
1060.405741	679.4000244
1060.970241	682.4000244
1061.534684	680.7999878
1062.099069	679.5999756
1062.663397	679.2000122
1063.227667	682.4000244
1063.791879	677.4000244
1064.356034	678.4000244
1064.920131	685.0
1065.48417	679.7999878
1066.048152	679.2000122
1066.612076	677.0
1067.175943	678.0
1067.739752	678.2000122
1068.303504	680.7999878
1068.867197	682.7999878
1069.430834	680.2000122
1069.994413	679.5999756
1070.557934	677.4000244
1071.121397	680.2000122
1071.684803	676.5999756
1072.248152	679.4000244
1072.811443	676.2000122
1073.374676	677.2000122
1073.937852	678.2000122
1074.50097	677.7999878
1075.064031	678.4000244
1075.627034	678.2000122
1076.18998	679.0
1076.752868	679.7999878
1077.315698	678.0
1077.878471	681.0
1078.441187	677.4000244
1079.003845	680.2000122
1079.566446	677.0
1080.128989	680.7999878
1080.691474	678.7999878
1081.253902	680.5999756
1081.816273	676.5999756
1082.378586	680.4000244
1082.940841	680.0
1083.503039	682.2000122
1084.06518	681.5999756
1084.627263	679.4000244
1085.189289	681.2000122
1085.751257	681.0
1086.313168	679.2000122
1086.875021	681.0
1087.436817	679.7999878
1087.998555	680.2000122
1088.560236	679.0
1089.12186	680.2000122
1089.683426	679.5999756
1090.244934	682.2000122
1090.806386	679.4000244
1091.367779	681.5999756
1091.929116	685.4000244
1092.490395	676.2000122
1093.051616	679.0
1093.61278	677.5999756
1094.173887	676.0
1094.734936	684.4000244
1095.295928	678.5999756
1095.856863	679.4000244
1096.41774	679.4000244
1096.97856	682.5999756
1097.539322	679.7999878
1098.100027	680.4000244
1098.660675	677.7999878
1099.221265	680.4000244
1099.781798	679.5999756
1100.342274	680.7999878
1100.902692	682.2000122
1101.463053	678.0
1102.023356	680.0
1102.583602	682.5999756
1103.143791	677.4000244
1103.703922	681.0
1104.263996	679.7999878
1104.824013	681.0
1105.383973	681.0
1105.943875	675.7999878
1106.50372	679.2000122
1107.063507	686.5999756
1107.623237	682.7999878
1108.18291	683.2000122
1108.742526	682.5999756
1109.302084	681.5999756
1109.861585	682.2000122
1110.421029	686.2000122
1110.980416	691.7999878
1111.539745	688.5999756
1112.099017	689.0
1112.658231	683.7999878
1113.217389	687.7999878
1113.776489	686.2000122
1114.335531	687.2000122
1114.894517	685.2000122
1115.453445	680.2000122
1116.012316	685.7999878
1116.57113	688.5999756
1117.129887	685.4000244
1117.688586	686.0
1118.247228	679.7999878
1118.805813	682.0
1119.364341	682.2000122
1119.922811	680.2000122
1120.481224	680.5999756
1121.03958	681.2000122
1121.597879	678.5999756
1122.156121	679.7999878
1122.714305	683.0
1123.272432	681.0
1123.830502	679.7999878
1124.388515	679.2000122
1124.946471	680.7999878
1125.504369	678.7999878
1126.062211	680.7999878
1126.619995	679.7999878
1127.177722	681.5999756
1127.735391	681.2000122
1128.293004	682.0
1128.850559	679.4000244
1129.408058	681.4000244
1129.965499	680.4000244
1130.522883	681.7999878
1131.08021	681.5999756
1131.637479	676.5999756
1132.194692	682.7999878
1132.751847	679.0
1133.308946	684.0
1133.865987	679.7999878
1134.422971	681.0
1134.979898	681.4000244
1135.536768	682.4000244
1136.09358	681.4000244
1136.650336	681.5999756
1137.207035	681.2000122
1137.763676	681.5999756
1138.32026	678.0
1138.876788	681.5999756
1139.433258	680.2000122
1139.989671	686.0
1140.546027	687.2000122
1141.102326	679.2000122
1141.658568	682.2000122
1142.214753	686.2000122
1142.770881	690.5999756
1143.326951	697.5999756
1143.882965	694.4000244
1144.438922	688.0
1144.994821	682.7999878
1145.550664	682.4000244
1146.106449	690.0
1146.662178	698.0
1147.217849	710.7999878
1147.773464	710.5999756
1148.329021	700.4000244
1148.884521	700.4000244
1149.439965	731.4000244
1149.995351	835.5999756
1150.55068	986.5999756
1151.105953	838.5999756
1151.661168	720.5999756
1152.216326	696.2000122
1152.771428	689.5999756
1153.326472	684.4000244
1153.88146	684.0
1154.43639	683.4000244
1154.991263	685.4000244
1155.54608	681.0
1156.100839	682.0
1156.655542	684.5999756
1157.210188	681.0
1157.764776	681.4000244
1158.319308	682.0
1158.873783	682.0
1159.428201	680.0
1159.982561	679.4000244
1160.536865	677.4000244
1161.091112	678.7999878
1161.645302	678.5999756
1162.199436	682.2000122
1162.753512	680.5999756
1163.307531	679.2000122
1163.861494	680.4000244
1164.415399	680.5999756
1164.969248	682.5999756
1165.523039	679.7999878
1166.076774	681.0
1166.630452	682.5999756
1167.184073	682.0
1167.737637	680.4000244
1168.291144	677.7999878
1168.844595	679.5999756
1169.397988	678.2000122
1169.951325	680.7999878
1170.504605	679.7999878
1171.057828	680.0
1171.610994	681.7999878
1172.164103	684.4000244
1172.717155	680.7999878
1173.270151	679.4000244
1173.823089	678.5999756
1174.375971	679.0
1174.928796	677.2000122
1175.481564	681.5999756
1176.034276	681.7999878
1176.58693	683.7999878
1177.139528	680.4000244
1177.692069	679.5999756
1178.244553	679.2000122
1178.79698	679.5999756
1179.34935	680.0
1179.901664	687.0
1180.453921	682.0
1181.006121	678.0
1181.558264	684.5999756
1182.110351	682.5999756
1182.66238	683.0
1183.214353	682.2000122
1183.76627	684.0
1184.318129	682.7999878
1184.869932	685.4000244
1185.421677	681.4000244
1185.973367	684.2000122
1186.524999	683.2000122
1187.076574	680.0
1187.628093	683.7999878
1188.179555	695.5999756
1188.730961	680.5999756
1189.282309	686.0
1189.833601	678.7999878
1190.384837	683.5999756
1190.936015	677.5999756
1191.487137	678.7999878
1192.038202	679.0
1192.58921	680.0
1193.140162	682.5999756
1193.691057	682.0
1194.241895	680.7999878
1194.792676	677.7999878
1195.343401	681.4000244
1195.894069	679.2000122
1196.444681	676.0
1196.995235	676.0
1197.545733	679.0
1198.096175	679.0
1198.646559	681.7999878
1199.196887	679.4000244
1199.747159	678.7999878
1200.297374	676.7999878
1200.847532	681.7999878
1201.397633	680.7999878
1201.947678	681.4000244
1202.497666	676.7999878
1203.047598	682.5999756
1203.597472	676.5999756
1204.147291	677.5999756
1204.697052	680.5999756
1205.246757	678.7999878
1205.796406	680.5999756
1206.345997	680.7999878
1206.895532	683.2000122
1207.994433	681.5999756
1208.543798	677.2000122
1209.093107	677.4000244
1209.642359	678.2000122
1210.191554	678.7999878
1210.740693	678.5999756
1211.289776	681.5999756
1211.838801	680.5999756
1212.387771	678.5999756
1212.936683	682.5999756
1213.485539	682.0
1214.034339	679.7999878
1214.583082	679.7999878
1215.131768	679.2000122
1215.680398	684.4000244
1216.228971	681.0
1216.777488	679.7999878
1217.325948	681.0
1217.874352	680.4000244
1218.422699	681.4000244
1218.970989	679.5999756
1219.519223	681.5999756
1220.067401	681.4000244
1220.615522	680.4000244
1221.163586	679.5999756
1221.711594	683.0
1222.259546	681.4000244
1222.807441	680.2000122
1223.355279	681.5999756
1223.903061	680.5999756
1224.450787	684.2000122
1224.998455	686.4000244
1225.546068	683.7999878
1226.093624	682.2000122
1226.641123	683.5999756
1227.188567	682.0
1227.735953	684.7999878
1228.283283	682.5999756
1228.830557	681.0
1229.377774	681.2000122
1229.924935	686.0
1230.472039	686.5999756
1231.019087	682.4000244
1231.566078	684.2000122
1232.113013	683.2000122
1232.659892	682.2000122
1233.206714	681.5999756
1233.753479	684.0
1234.300188	682.4000244
1234.846841	681.2000122
1235.393438	682.2000122
1235.939978	682.7999878
1236.486461	682.4000244
1237.032888	678.7999878
1237.579259	680.5999756
1238.125573	677.7999878
1238.671831	683.2000122
1239.218033	681.0
1239.764178	681.4000244
1240.310267	682.7999878
1240.856299	679.0
1241.402275	683.5999756
1241.948194	679.4000244
1242.494058	682.2000122
1243.039865	681.2000122
1243.585615	680.5999756
1244.131309	684.2000122
1244.676947	684.2000122
1245.222528	677.7999878
1245.768053	680.5999756
1246.313522	680.7999878
1246.858935	680.5999756
1247.404291	681.2000122
1247.94959	684.0
1248.494834	685.7999878
1249.040021	682.4000244
1249.585152	682.7999878
1250.130226	682.0
1250.675244	683.5999756
1251.220206	683.2000122
1251.765111	681.2000122
1252.30996	679.7999878
1252.854753	684.0
1253.39949	685.4000244
1253.94417	682.5999756
1254.488794	682.0
1255.033362	686.7999878
1255.577873	679.0
1256.122328	680.0
1256.666727	682.0
1257.21107	681.0
1257.755356	682.2000122
1258.299586	684.4000244
1258.84376	688.0
1259.387877	683.0
1259.931939	680.5999756
1260.475944	684.2000122
1261.019892	680.7999878
1261.563785	682.0
1262.107621	686.2000122
1262.651401	687.2000122
1263.195125	690.2000122
1263.738793	696.0
1264.282404	706.7999878
1264.825959	725.5999756
1265.369458	726.7999878
1265.912901	706.7999878
1266.456287	694.4000244
1266.999618	686.0
1267.542892	683.0
1268.08611	682.5999756
1268.629271	679.5999756
1269.172377	682.2000122
1269.715426	678.0
1270.258419	680.0
1270.801356	683.2000122
1271.344237	677.0
1271.887061	684.7999878
1272.42983	682.5999756
1272.972542	681.5999756
1273.515198	679.7999878
1274.057798	677.5999756
1274.600342	679.4000244
1275.142829	677.7999878
1275.685261	677.5999756
1276.227636	682.7999878
1276.769955	679.7999878
1277.312218	682.0
1277.854425	677.4000244
1278.396576	683.0
1278.93867	683.7999878
1279.480709	680.5999756
1280.022691	681.5999756
1280.564618	683.4000244
1281.106488	686.4000244
1281.648302	686.4000244
1282.19006	695.0
1282.731761	698.5999756
1283.273407	715.5999756
1283.814997	753.2000122
1284.35653	864.0
1284.898008	1199.0
1285.439429	1383.199951
1285.980794	980.0
1286.522104	768.5999756
1287.063357	717.0
1287.604554	701.7999878
1288.145695	693.2000122
1288.68678	689.0
1289.227808	686.4000244
1289.768781	687.5999756
1290.309698	684.7999878
1290.850559	679.5999756
1291.391363	684.4000244
1291.932112	681.5999756
1292.472804	680.4000244
1293.013441	685.2000122
1293.554022	684.2000122
1294.094546	686.0
1294.635014	683.5999756
1295.175427	681.5999756
1295.715783	683.7999878
1297.876649	690.2000122
1298.416725	679.5999756
1298.956745	682.7999878
1299.49671	681.5999756
1300.036618	682.5999756
1300.576471	682.5999756
1301.116267	682.5999756
1301.656007	680.0
1302.195692	681.7999878
1302.73532	683.4000244
1303.274893	680.2000122
1303.81441	679.5999756
1304.35387	678.7999878
1304.893275	683.5999756
1305.432623	681.7999878
1305.971916	677.5999756
1306.511153	675.5999756
1307.050334	682.4000244
1307.589459	679.5999756
1308.128528	683.2000122
1308.667541	679.7999878
1309.206498	680.5999756
1309.745399	678.2000122
1310.284244	679.5999756
1310.823033	678.0
1311.361767	681.0
1311.900444	675.0
1312.439066	678.4000244
1312.977632	677.7999878
1313.516141	680.4000244
1314.054595	678.7999878
1314.592993	677.4000244
1315.131335	680.4000244
1315.669622	680.5999756
1316.207852	677.4000244
1316.746026	682.2000122
1317.284145	680.0
1317.822208	679.4000244
1318.360215	677.5999756
1318.898166	678.7999878
1319.436061	680.4000244
1319.9739	676.5999756
1320.511683	680.4000244
1321.049411	677.2000122
1321.587082	679.0
1322.124698	679.5999756
1322.662258	678.7999878
1323.199762	679.2000122
1323.737211	679.2000122
1324.274603	676.4000244
1324.81194	678.2000122
1325.349221	675.5999756
1325.886446	676.5999756
1326.423615	676.4000244
1326.960728	678.0
1327.497786	679.0
1328.034788	678.5999756
1328.571734	675.7999878
1329.108624	678.4000244
1329.645458	678.7999878
1330.182237	677.7999878
1330.718959	680.7999878
1331.255626	679.4000244
1331.792238	678.4000244
1332.328793	678.0
1332.865293	677.5999756
1333.401737	677.5999756
1333.938125	675.5999756
1334.474457	675.4000244
1335.010734	673.7999878
1335.546954	675.7999878
1336.083119	678.0
1336.619229	677.0
1337.155282	676.5999756
1337.69128	677.7999878
1338.227222	675.5999756
1338.763109	677.4000244
1339.298939	679.0
1339.834714	677.2000122
1340.370433	679.0
1340.906097	677.4000244
1341.441704	678.0
1341.977256	682.2000122
1342.512752	679.5999756
1343.048193	676.0
1343.583578	676.2000122
1344.118907	674.7999878
1344.65418	676.4000244
1345.189398	674.2000122
1345.72456	677.0
1346.259667	678.0
1346.794717	678.0
1347.329712	678.5999756
1347.864652	676.7999878
1348.399535	680.2000122
1348.934363	678.5999756
1349.469135	679.4000244
1350.003852	676.4000244
1350.538513	678.2000122
1351.073118	675.4000244
1351.607668	679.7999878
1352.142162	676.4000244
1352.6766	677.2000122
1353.210983	679.4000244
1353.74531	681.0
1354.279582	679.2000122
1354.813797	680.0
1355.347957	679.5999756
1355.882062	680.2000122
1356.416111	676.7999878
1356.950104	678.0
1357.484042	678.2000122
1358.017924	680.7999878
1358.55175	680.0
1359.085521	681.2000122
1359.619236	677.7999878
1360.152896	678.2000122
1360.6865	680.2000122
1361.220048	677.7999878
1361.753541	676.2000122
1362.286978	677.4000244
1362.82036	676.7999878
1363.353686	677.2000122
1363.886957	679.4000244
1364.420172	677.5999756
1364.953331	679.0
1365.486435	682.5999756
1366.019483	678.5999756
1366.552476	681.2000122
1367.085413	680.2000122
1367.618294	679.2000122
1368.15112	677.5999756
1368.683891	681.4000244
1369.216606	681.4000244
1369.749265	680.7999878
1370.281869	700.0
1370.814417	688.5999756
1371.34691	682.5999756
1371.879347	678.5999756
1372.411729	679.2000122
1372.944055	681.4000244
1373.476326	680.7999878
1374.008541	683.5999756
1374.540701	680.2000122
1375.072805	677.0
1375.604854	680.7999878
1376.136847	681.2000122
1376.668784	682.4000244
1377.200667	679.4000244
1377.732493	677.2000122
1378.264265	682.4000244
1378.79598	678.7999878
1379.32764	680.2000122
1379.859245	682.0
1380.390795	677.7999878
1380.922288	682.2000122
1381.453727	680.5999756
1381.98511	682.4000244
1382.516437	684.5999756
1383.047709	683.4000244
1383.578926	684.2000122
1384.110087	685.4000244
1384.641192	685.2000122
1385.172242	691.5999756
1385.703237	699.7999878
1386.234177	709.7999878
1386.76506	729.5999756
1387.295889	780.7999878
1387.826662	1016.400024
1388.357379	1727.800049
1388.888042	1746.199951
1389.418648	992.0
1389.9492	764.5999756
1390.479696	712.4000244
1391.010136	699.5999756
1391.540521	696.7999878
1392.070851	690.0
1392.601126	686.4000244
1393.131344	685.0
1393.661508	684.0
1394.191616	683.4000244
1394.721669	680.0
1395.251666	681.4000244
1395.781609	683.4000244
1396.311495	679.2000122
1396.841327	680.7999878
1397.371102	681.0
1397.900823	678.0
1398.430488	678.0
1398.960098	682.2000122
1399.489653	681.2000122
1400.019152	680.5999756
1400.548596	678.2000122
1401.077984	675.0
1401.607317	677.7999878
1402.136595	681.4000244
1402.665818	678.0
1403.194985	679.7999878
1403.724097	678.4000244
1404.253153	680.0
1404.782154	678.5999756
1405.3111	680.2000122
1405.839991	680.2000122
1406.368826	680.4000244
1406.897606	682.0
1407.426331	681.4000244
1407.955	684.5999756
1408.483614	689.7999878
1409.012173	704.2000122
1409.540676	746.7999878
1410.069124	774.4000244
1410.597517	741.5999756
1411.125855	699.5999756
1411.654137	686.7999878
1412.182364	683.4000244
1412.710536	677.5999756
1413.238653	679.5999756
1413.766714	680.4000244
1414.29472	678.0
1414.822671	676.0
1415.350566	678.7999878
1415.878407	680.4000244
1416.406192	677.5999756
1416.933921	675.4000244
1417.461596	676.2000122
1417.989215	679.7999878
1418.516779	674.0
1419.044288	680.5999756
1419.571742	679.4000244
1420.09914	679.2000122
1420.626483	679.2000122
1421.153771	676.2000122
1421.681004	675.2000122
1422.208182	678.5999756
1422.735304	677.2000122
1423.262371	675.0
1423.789383	677.2000122
1424.31634	675.7999878
1424.843241	680.0
1425.370088	676.4000244
1425.896879	677.4000244
1426.423615	678.7999878
1426.950296	681.2000122
1427.476921	676.4000244
1428.003492	674.7999878
1428.530007	676.7999878
1429.056467	673.4000244
1429.582872	680.0
1430.109222	678.2000122
1430.635517	678.7999878
1431.161756	676.7999878
1431.687941	674.0
1432.21407	675.0
1432.740144	673.4000244
1433.266163	673.4000244
1433.792127	676.5999756
1434.318035	677.4000244
1434.843889	676.7999878
1435.369687	676.5999756
1435.895431	676.2000122
1436.421119	678.0
1436.946752	679.7999878
1437.47233	674.2000122
1437.997853	679.5999756
1438.52332	677.7999878
1439.048733	677.5999756
1439.57409	675.5999756
1440.099393	679.4000244
1440.62464	676.5999756
1441.149832	679.7999878
1441.67497	677.5999756
1442.200052	678.5999756
1442.725079	678.7999878
1443.250051	677.4000244
1443.774967	675.5999756
1444.299829	675.5999756
1444.824636	676.4000244
1445.349388	672.7999878
1445.874084	678.7999878
1446.398726	675.7999878
1446.923312	677.7999878
1447.447844	676.5999756
1447.97232	678.7999878
1448.496741	676.2000122
1449.021108	677.0
1449.545419	675.4000244
1450.069675	677.5999756
1450.593876	675.5999756
1451.118022	677.4000244
1451.642114	677.0
1452.16615	676.5999756
1452.690131	678.2000122
1453.214057	677.4000244
1453.737928	676.7999878
1454.261744	676.5999756
1454.785505	677.4000244
1455.309211	676.5999756
1455.832862	674.4000244
1456.356458	676.7999878
1456.879999	678.2000122
1457.403485	674.5999756
1457.926917	678.2000122
1458.450293	679.5999756
1458.973614	676.7999878
1459.49688	676.7999878
1460.020091	676.7999878
1460.543247	678.7999878
1461.066349	675.5999756
1461.589395	676.4000244
1462.112386	675.5999756
1462.635323	677.7999878
1463.158204	675.0
1463.681031	676.2000122
1464.203802	674.2000122
1464.726519	675.7999878
1465.249181	682.0
1465.771787	674.5999756
1466.294339	680.4000244
1466.816836	676.2000122
1467.339278	674.2000122
1467.861665	673.4000244
1468.383997	672.2000122
1468.906274	674.4000244
1469.428496	677.7999878
1469.950664	675.5999756
1470.472776	677.2000122
1470.994834	677.7999878
1471.516837	673.4000244
1472.038784	677.0
1472.560677	674.7999878
1473.082515	674.5999756
1473.604298	675.5999756
1474.126026	673.7999878
1474.6477	673.0
1475.169318	672.2000122
1475.690882	675.0
1476.212391	676.7999878
1476.733844	673.0
1477.255243	671.5999756
1477.776588	673.4000244
1478.297877	675.4000244
1478.819111	672.4000244
1479.340291	673.5999756
1479.861416	670.5999756
1480.382485	668.7999878
1480.9035	674.4000244
1481.424461	673.7999878
1481.945366	673.2000122
1482.466217	671.2000122
1482.987012	673.5999756
1483.507753	674.0
1484.028439	672.4000244
1484.54907	672.5999756
1485.069647	670.4000244
1485.590168	674.4000244
1486.110635	673.4000244
1486.631047	673.2000122
1487.151404	672.7999878
1487.671707	671.0
1488.191955	674.5999756
1488.712147	675.2000122
1489.232285	671.7999878
1489.752369	671.0
1490.272397	669.2000122
1490.792371	672.2000122
1491.31229	673.2000122
1491.832154	672.2000122
1492.351963	672.0
1492.871718	670.7999878
1493.391418	673.7999878
1493.911063	670.5999756
1494.430653	671.4000244
1494.950189	681.0
1495.46967	674.7999878
1495.989096	673.0
1496.508467	670.4000244
1497.027784	672.2000122
1497.547045	670.7999878
1498.066253	672.2000122
1498.585405	670.0
1499.104503	673.7999878
1499.623546	671.2000122
1500.142534	672.4000244
1500.661467	673.4000244
1501.180346	670.7999878
1501.69917	673.0
1502.21794	672.7999878
1502.736654	672.7999878
1503.255314	672.7999878
1503.77392	671.2000122
1504.29247	669.2000122
1504.810966	673.5999756
1505.329408	672.0
1505.847794	678.7999878
1506.366126	671.0
1506.884403	673.7999878
1507.402626	673.2000122
1507.920794	670.5999756
1508.438907	671.2000122
1508.956965	669.2000122
1509.474969	673.4000244
1509.992918	671.7999878
1510.510813	673.7999878
1511.028653	673.2000122
1511.546438	673.5999756
1512.064169	670.4000244
1512.581845	674.2000122
1513.099466	675.0
1513.617033	672.2000122
1514.134545	674.4000244
1514.652002	670.2000122
1515.169405	672.2000122
1515.686753	672.5999756
1516.204047	671.0
1516.721286	670.4000244
1517.23847	671.5999756
1517.7556	673.5999756
1518.272675	673.0
1518.789695	673.0
1519.306661	670.0
1519.823573	673.7999878
1520.340429	673.5999756
1520.857232	672.7999878
1521.373979	669.5999756
1521.890672	674.2000122
1522.407311	673.7999878
1522.923895	669.4000244
1523.440424	671.7999878
1523.956899	672.4000244
1524.473319	671.7999878
1524.989684	672.5999756
1525.505995	671.7999878
1526.022252	670.7999878
1526.538454	670.7999878
1527.054601	675.2000122
1527.570694	674.4000244
1528.086732	671.0
1528.602716	670.2000122
1529.118645	672.4000244
1529.63452	673.0
1530.15034	671.0
1530.666106	669.2000122
1531.181817	669.4000244
1531.697473	669.4000244
1532.213075	673.4000244
1532.728623	673.2000122
1533.244116	670.2000122
1533.759554	673.2000122
1534.274938	670.5999756
1534.790268	669.7999878
1535.305543	670.7999878
1535.820764	669.5999756
1536.33593	672.4000244
1536.851041	673.0
1537.366098	673.7999878
1537.881101	671.0
1538.396049	671.7999878
1538.910943	669.0
1539.425782	669.2000122
1539.940567	671.4000244
1540.455297	671.0
1540.969973	670.7999878
1541.484594	668.7999878
1541.999161	670.7999878
1542.513673	672.2000122
1543.028131	673.7999878
1543.542535	670.4000244
1544.056884	672.2000122
1544.571179	666.5999756
1545.085419	673.2000122
1545.599605	671.4000244
1546.113736	671.4000244
1546.627813	669.0
1547.141836	669.4000244
1547.655804	672.5999756
1548.169718	671.0
1548.683577	671.7999878
1549.197382	669.4000244
1549.711132	672.4000244
1550.224829	674.7999878
1550.73847	671.0
1551.252058	671.2000122
1551.76559	670.4000244
1552.279069	674.4000244
1552.792493	670.7999878
1553.305863	671.5999756
1553.819178	671.5999756
1554.332439	671.2000122
1554.845646	669.4000244
1555.358798	673.5999756
1555.871896	672.4000244
1556.38494	672.7999878
1556.897929	669.4000244
1557.410864	673.4000244
1557.923744	670.5999756
1558.436571	674.5999756
1558.949342	671.4000244
1559.46206	672.0
1559.974723	670.4000244
1560.487332	671.4000244
1560.999886	670.7999878
1561.512386	671.4000244
1562.024832	671.2000122
1562.537224	672.0
1563.049561	671.2000122
1563.561844	672.7999878
1564.074072	673.4000244
1564.586247	671.7999878
1565.098367	670.2000122
1565.610432	671.4000244
1566.122444	671.4000244
1566.634401	669.5999756
1567.146304	669.5999756
1567.658152	673.2000122
1568.169946	674.0
1568.681686	669.7999878
1569.193372	669.7999878
1569.705003	669.7999878
1570.21658	669.2000122
1570.728103	671.2000122
1571.239572	670.2000122
1571.750986	671.0
1572.262346	672.5999756
1572.773652	673.2000122
1573.284904	669.2000122
1573.796101	670.4000244
1574.307244	675.2000122
1574.818333	669.4000244
1575.329367	669.5999756
1575.840348	671.2000122
1576.351274	669.5999756
1576.862146	672.2000122
1577.372964	672.0
1577.883727	674.5999756
1578.394436	669.7999878
1578.905091	676.5999756
1579.415692	671.7999878
1579.926239	670.7999878
1580.436731	671.0
1580.947169	668.4000244
1581.457553	672.4000244
1581.967883	673.7999878
1582.478159	672.5999756
1582.98838	672.5999756
1583.498548	672.0
1584.008661	671.4000244
1584.51872	673.0
1585.028725	672.5999756
1585.538675	667.5999756
1586.048572	671.2000122
1586.558414	668.5999756
1587.068202	673.7999878
1587.577936	672.4000244
