1042.452273	689.0
1043.018714	686.7999878
1043.585098	689.7999878
1044.151424	689.5999756
1044.717692	689.4000244
1045.283903	688.2000122
1045.850056	689.5999756
1046.416151	687.5999756
1046.982188	685.7999878
1047.548167	687.0
1048.114089	688.2000122
1048.679953	688.5999756
1049.24576	688.5999756
1049.811509	690.4000244
1050.3772	689.7999878
1050.942833	692.4000244
1051.508408	687.5999756
1052.073926	688.2000122
1052.639387	687.5999756
1053.204789	688.7999878
1053.770134	684.5999756
1054.335421	683.7999878
1054.900651	687.4000244
1055.465823	691.2000122
1056.030937	689.5999756
1056.595993	685.5999756
1057.160992	687.7999878
1057.725934	688.2000122
1058.290817	685.0
1058.855643	688.0
1059.420411	687.0
1059.985122	688.5999756
1060.549775	685.5999756
1061.114371	683.7999878
1061.678908	687.7999878
1062.243389	689.2000122
1062.807811	687.4000244
1065.064925	691.4000244
1065.62906	683.4000244
1066.193137	685.0
1066.757156	684.4000244
1067.321118	683.7999878
1067.885022	688.0
1068.448869	684.0
1069.012658	686.7999878
1069.57639	687.2000122
1070.140063	691.7999878
1070.70368	683.0
1071.267239	685.2000122
1071.83074	686.5999756
1072.394184	685.0
1072.95757	685.0
1073.520899	682.7999878
1074.08417	686.4000244
1074.647383	686.0
1075.21054	683.2000122
1075.773638	684.7999878
1076.336679	688.5999756
1076.899663	684.7999878
1077.462589	683.7999878
1078.025457	685.0
1078.588268	684.5999756
1079.151022	685.4000244
1079.713718	685.5999756
1080.276356	684.0
1080.838937	680.2000122
1081.401461	683.5999756
1081.963927	687.4000244
1082.526336	683.2000122
1083.088687	684.4000244
1083.650981	680.2000122
1084.213217	685.5999756
1084.775396	685.7999878
1085.337517	686.4000244
1085.899581	685.4000244
1086.461587	682.0
1087.023536	679.5999756
1087.585428	684.7999878
1088.147262	684.7999878
1088.709039	687.0
1089.270758	682.7999878
1089.83242	683.7999878
1090.394024	683.0
1090.955571	681.5999756
1091.517061	680.7999878
1092.078493	681.2000122
1092.639868	684.5999756
1093.201185	680.5999756
1093.762445	680.4000244
1094.323648	683.0
1094.884793	682.4000244
1095.445881	683.7999878
1096.006911	685.0
1096.567884	681.5999756
1097.1288	689.5999756
1097.689659	684.4000244
1098.25046	685.2000122
1098.811203	684.2000122
1099.37189	683.2000122
1099.932518	685.4000244
1100.49309	682.5999756
1101.053604	679.7999878
1101.614061	678.5999756
1102.174461	683.7999878
1102.734803	683.4000244
1103.295088	682.0
1103.855316	683.0
1104.415486	682.4000244
1104.975599	685.5999756
1105.535655	682.5999756
1106.095653	680.4000244
1106.655594	683.2000122
1107.215478	689.0
1107.775305	686.2000122
1108.335074	679.7999878
1108.894786	681.0
1109.45444	684.5999756
1110.014038	688.0
1110.573578	682.7999878
1111.133061	683.0
1111.692486	685.7999878
1112.251854	684.5999756
1112.811165	683.4000244
1113.370419	685.0
1113.929616	683.0
1114.488755	683.5999756
1115.047837	684.2000122
1115.606862	684.5999756
1116.16583	685.2000122
1116.72474	688.7999878
1117.283593	684.7999878
1117.842389	682.5999756
1118.401128	683.0
1118.959809	681.2000122
1119.518433	685.0
1120.077	682.2000122
1120.63551	683.5999756
1121.193963	682.0
1121.752358	681.2000122
1122.310697	685.2000122
1122.868978	684.0
1123.427202	684.4000244
1123.985368	683.5999756
1124.543478	681.5999756
1125.10153	684.7999878
1125.659526	680.5999756
1126.217464	681.2000122
1126.775345	681.0
1127.333168	682.7999878
1127.890935	686.0
1128.448644	682.2000122
1129.006297	684.4000244
1129.563892	680.4000244
1130.12143	687.4000244
1130.678911	681.7999878
1131.236335	680.5999756
1131.793701	679.2000122
1132.351011	684.2000122
1132.908263	685.7999878
1133.465458	686.4000244
1134.022597	684.7999878
1134.579678	685.5999756
1135.136702	683.7999878
1135.693669	680.7999878
1136.250578	682.7999878
1136.807431	679.5999756
1137.364227	681.4000244
1137.920965	681.5999756
1138.477647	683.0
1139.034271	681.7999878
1139.590839	678.5999756
1140.147349	683.5999756
1140.703802	682.7999878
1141.260198	683.0
1141.816537	683.0
1142.37282	682.5999756
1142.929045	683.5999756
1143.485213	683.7999878
1144.041323	679.7999878
1144.597377	679.5999756
1145.153374	678.7999878
1145.709314	678.2000122
1146.265197	680.5999756
1146.821023	683.5999756
1147.376792	680.7999878
1147.932503	684.7999878
1148.488158	681.7999878
1149.043756	679.7999878
1149.599297	686.2000122
1150.154781	686.0
1150.710207	691.5999756
1151.265577	683.2000122
1151.82089	683.2000122
1152.376146	684.4000244
1152.931345	677.5999756
1153.486487	683.2000122
1154.041572	680.7999878
1154.5966	683.5999756
1155.151571	682.5999756
1155.706485	683.0
1156.261342	680.4000244
1156.816142	680.7999878
1157.370885	685.4000244
1157.925572	681.2000122
1158.480201	686.0
1159.034774	680.7999878
1159.589289	682.2000122
1160.143748	684.4000244
1160.698149	680.4000244
1161.252494	681.2000122
1161.806782	683.2000122
1162.361013	682.2000122
1162.915187	678.4000244
1163.469304	682.2000122
1164.023364	680.4000244
1164.577368	679.5999756
1165.131314	685.4000244
1165.685204	682.0
1166.239036	681.5999756
1166.792812	681.4000244
1167.346531	684.0
1167.900193	681.5999756
1168.453798	683.4000244
1169.007347	681.2000122
1169.560838	681.7999878
1170.114273	681.2000122
1170.66765	681.4000244
1171.220971	683.0
1171.774235	681.0
1172.327443	681.0
1172.880593	678.4000244
1173.433687	678.7999878
1173.986723	681.0
1174.539703	680.2000122
1175.092626	679.0
1175.645493	680.4000244
1176.198302	684.0
1176.751055	681.7999878
1177.303751	681.2000122
1177.85639	681.2000122
1178.408972	682.2000122
1178.961498	679.7999878
1179.513966	684.7999878
1180.066378	683.7999878
1180.618733	679.4000244
1181.171032	683.7999878
1181.723273	683.7999878
1182.275458	683.2000122
1182.827586	682.4000244
1183.379657	681.4000244
1183.931672	682.2000122
1184.48363	686.2000122
1185.035531	682.5999756
1185.587375	683.7999878
1186.139162	681.7999878
1186.690893	681.0
1187.242567	679.5999756
1187.794184	682.7999878
1188.345745	683.5999756
1188.897249	681.7999878
1189.448696	681.2000122
1190.000086	683.0
1190.55142	682.2000122
1191.102697	680.0
1191.653918	680.7999878
1192.205081	685.4000244
1192.756188	677.5999756
1193.858232	679.7999878
1194.409169	681.0
1194.960049	681.2000122
1195.510872	684.7999878
1196.061639	684.0
1196.612349	680.5999756
1197.163003	680.2000122
1197.713599	685.2000122
1198.264139	683.2000122
1198.814623	679.7999878
1199.36505	682.0
1199.91542	681.4000244
1200.465734	680.4000244
1201.01599	677.0
1201.566191	678.0
1202.116334	680.2000122
1202.666421	681.0
1203.216452	680.0
1203.766425	682.4000244
1204.316343	681.7999878
1204.866203	682.2000122
1205.416007	676.2000122
1205.965754	680.2000122
1206.515445	676.7999878
1207.065079	683.2000122
1207.614657	682.4000244
1208.164177	680.5999756
1208.713642	678.0
1209.26305	683.2000122
1209.812401	682.7999878
1210.361695	682.4000244
1210.910933	681.0
1211.460115	679.5999756
1212.00924	682.0
1212.558308	685.0
1213.10732	683.4000244
1213.656275	680.5999756
1214.205174	678.2000122
1214.754016	682.2000122
1215.302801	681.4000244
1215.85153	679.7999878
1216.400203	683.2000122
1216.948819	678.5999756
1217.497378	678.4000244
1218.045881	679.2000122
1218.594327	679.2000122
1219.142717	682.5999756
1219.691051	683.0
1220.239327	684.0
1220.787548	680.7999878
1221.335712	683.5999756
1221.883819	680.0
1222.43187	681.7999878
1222.979864	681.4000244
1223.527802	681.2000122
1224.075683	685.2000122
1224.623508	679.4000244
1225.171277	679.7999878
1225.718989	681.0
1226.266644	680.2000122
1226.814243	680.4000244
1227.361786	681.5999756
1227.909272	680.7999878
1228.456702	681.4000244
1229.004075	676.5999756
1229.551392	681.2000122
1230.098652	681.4000244
1230.645856	680.2000122
1231.193003	679.7999878
1231.740094	680.2000122
1232.287129	679.7999878
1232.834107	678.7999878
1233.381029	678.4000244
1233.927894	680.5999756
1234.474703	679.7999878
1235.021455	679.7999878
1235.568151	683.5999756
1236.114791	679.4000244
1236.661374	681.2000122
1237.207901	681.7999878
1237.754372	680.2000122
1238.300786	682.2000122
1238.847144	682.5999756
1239.393445	678.7999878
1239.93969	680.7999878
1240.485879	680.0
1241.032011	677.0
1241.578087	682.7999878
1242.124106	681.2000122
1242.67007	681.5999756
1243.215976	680.5999756
1243.761827	683.2000122
1244.307621	679.2000122
1244.853359	680.5999756
1245.39904	678.4000244
1245.944665	680.4000244
1246.490234	680.7999878
1247.035746	681.2000122
1247.581203	679.7999878
1248.126602	681.5999756
1248.671946	680.5999756
1249.217233	681.0
1249.762464	680.7999878
1250.307638	681.0
1250.852757	676.7999878
1251.397819	679.0
1251.942824	680.0
1252.487774	679.4000244
1253.032667	682.2000122
1253.577503	677.5999756
1254.122284	679.5999756
1254.667008	679.7999878
1255.211676	684.0
1255.756288	681.5999756
1256.300843	680.7999878
1256.845342	682.0
1257.389785	679.4000244
1257.934172	681.2000122
1258.478502	680.4000244
1259.022776	684.0
1259.566994	679.7999878
1260.111156	690.2000122
1260.655261	684.7999878
1261.199311	682.2000122
1261.743304	682.5999756
1262.28724	681.7999878
1262.831121	685.4000244
1263.374945	684.0
1263.918713	689.4000244
1264.462425	690.4000244
1265.006081	695.5999756
1265.54968	691.5999756
1266.093223	685.2000122
1266.636711	681.5999756
1267.180141	680.4000244
1267.723516	680.7999878
1268.266835	680.2000122
1268.810097	684.0
1269.353303	679.0
1269.896453	680.5999756
1270.439547	678.2000122
1270.982584	681.0
1271.525566	680.4000244
1272.068491	681.5999756
1272.61136	678.7999878
1273.154173	675.4000244
1273.69693	684.7999878
1274.239631	678.7999878
1274.782275	684.2000122
1275.324864	679.5999756
1275.867396	681.5999756
1276.409872	681.0
1276.952292	679.5999756
1277.494656	680.7999878
1278.036964	683.4000244
1278.579215	678.5999756
1279.121411	679.0
1279.66355	679.5999756
1280.205634	680.7999878
1280.747661	680.7999878
1281.289632	681.2000122
1281.831547	685.5999756
1282.373406	688.7999878
1282.915209	693.5999756
1283.456955	704.5999756
1283.998646	736.4000244
1284.540281	816.7999878
1285.081859	915.7999878
1285.623381	838.5999756
1286.164848	733.7999878
1286.706258	701.2000122
1287.247612	688.4000244
1287.788911	685.2000122
1288.330153	681.5999756
1288.871339	685.2000122
1289.412469	686.4000244
1289.953543	681.4000244
1290.494561	678.2000122
1291.035523	678.2000122
1291.576428	677.7999878
1292.117278	683.0
1292.658072	682.5999756
1293.19881	679.5999756
1293.739492	681.7999878
1294.280118	681.0
1294.820687	680.2000122
1295.361201	679.2000122
1295.901659	682.0
1296.442061	678.7999878
1296.982406	680.7999878
1297.522696	681.2000122
1298.06293	680.2000122
1298.603108	680.5999756
1299.143229	683.4000244
1299.683295	681.2000122
1300.223305	678.5999756
1300.763259	680.2000122
1301.303157	679.7999878
1301.842999	678.4000244
1302.382785	677.5999756
1302.922515	678.2000122
1303.462189	677.0
1304.001807	678.4000244
1304.541369	677.4000244
1305.080875	678.7999878
1305.620326	678.7999878
1306.15972	680.5999756
1306.699058	679.5999756
1307.238341	680.0
1307.777567	680.7999878
1308.316738	678.0
1308.855853	679.4000244
1309.394912	681.7999878
1309.933915	680.7999878
1310.472862	680.5999756
1311.011753	676.2000122
1311.550588	678.7999878
1312.089367	677.2000122
1312.62809	678.4000244
1313.166758	678.5999756
1313.70537	679.2000122
1314.243925	677.7999878
1314.782425	678.4000244
1315.320869	679.5999756
1315.859257	675.2000122
1316.397589	676.2000122
1316.935866	677.4000244
1317.474086	676.7999878
1318.012251	676.5999756
1318.55036	677.7999878
1319.088413	677.2000122
1319.62641	679.7999878
1320.164351	679.4000244
1320.702236	678.5999756
1321.240066	680.0
1321.777839	677.4000244
1322.315557	678.2000122
1322.853219	679.0
1323.390826	679.2000122
1323.928376	682.0
1324.465871	677.7999878
1325.003309	678.7999878
1325.540692	678.2000122
1326.07802	676.0
1326.615291	677.4000244
1327.152506	678.0
1327.689666	676.7999878
1328.22677	679.0
1328.763818	676.7999878
1329.300811	677.5999756
1329.837747	674.5999756
1330.374628	679.0
1330.911453	677.4000244
1331.448222	679.4000244
1331.984936	674.0
1332.521594	679.0
1333.058196	675.5999756
1333.594742	676.0
1334.131232	678.4000244
1334.667667	675.7999878
1335.204046	676.0
1335.740369	675.7999878
1336.276637	678.5999756
1336.812848	677.5999756
1337.349004	678.4000244
1337.885105	676.7999878
1338.421149	680.0
1338.957138	677.0
1339.493071	678.2000122
1340.028949	676.5999756
1340.56477	680.0
1341.100536	677.0
1341.636246	677.5999756
1342.171901	676.0
1342.7075	680.0
1343.243043	679.5999756
1343.77853	679.0
1344.313962	678.0
1344.849338	676.2000122
1345.384659	674.2000122
1345.919923	677.0
1346.455133	675.7999878
1346.990286	681.7999878
1347.525384	679.0
1348.060426	678.5999756
1348.595412	679.2000122
1349.130343	676.5999756
1349.665218	676.5999756
1350.200037	677.0
1350.734801	678.2000122
1351.269509	676.2000122
1351.804162	677.7999878
1352.338758	679.7999878
1352.8733	678.0
1353.407785	676.0
1353.942215	676.4000244
1354.476589	679.5999756
1355.010908	676.2000122
1355.545171	678.5999756
1356.079379	678.7999878
1356.61353	680.2000122
1357.147627	682.2000122
1357.681667	678.5999756
1358.215652	675.7999878
1358.749582	677.0
1359.283456	678.5999756
1359.817274	673.7999878
1360.351037	678.2000122
1360.884744	676.7999878
1361.418395	679.7999878
1361.951991	676.4000244
1362.485531	678.0
1363.019016	675.5999756
1363.552445	677.4000244
1364.085819	675.2000122
1364.619137	681.7999878
1365.1524	678.0
1365.685607	678.7999878
1366.218758	678.5999756
1366.751854	677.0
1367.284894	677.4000244
1367.817879	678.4000244
1368.350808	676.5999756
1368.883682	678.7999878
1369.4165	678.5999756
1369.949263	683.0
1370.48197	684.7999878
1371.014622	683.7999878
1371.547218	678.0
1372.079758	680.7999878
1372.612244	676.7999878
1373.144673	675.4000244
1373.677047	675.0
1374.209366	677.0
1374.741629	677.5999756
1375.273836	675.2000122
1375.805989	680.2000122
1376.338085	681.4000244
1376.870126	677.2000122
1377.402112	679.4000244
1377.934042	678.0
1378.465917	678.2000122
1378.997736	681.5999756
1379.5295	676.4000244
1380.061208	677.5999756
1380.592861	679.5999756
1381.124459	678.4000244
1381.656	678.0
1382.187487	682.4000244
1382.718918	679.7999878
1383.250294	679.5999756
1383.781614	683.2000122
1384.312879	680.7999878
1384.844088	683.4000244
1385.375242	682.5999756
1385.90634	688.5999756
1386.437383	694.5999756
1386.968371	708.0
1387.499303	748.0
1388.03018	893.4000244
1388.561001	1114.599976
1389.091767	925.0
1389.622478	744.0
1390.153133	701.0
1390.683733	689.5999756
1391.214277	686.2000122
1391.744766	681.2000122
1392.2752	683.5999756
1392.805578	679.4000244
1393.335901	678.2000122
1393.866168	682.7999878
1394.396381	678.7999878
1394.926537	677.0
1395.456639	676.4000244
1395.986685	678.4000244
1396.516675	680.5999756
1397.046611	679.5999756
1397.576491	679.2000122
1398.106315	678.0
1398.636084	676.0
1399.165798	678.2000122
1399.695457	678.5999756
1400.22506	680.4000244
1400.754608	678.0
1401.284101	676.4000244
1401.813538	676.7999878
1402.34292	679.5999756
1402.872247	676.5999756
1403.401518	676.5999756
1403.930734	681.5999756
1404.459895	678.2000122
1404.989	676.7999878
1405.51805	678.5999756
1406.047045	679.0
1406.575984	678.7999878
1407.104869	680.7999878
1407.633697	681.5999756
1408.162471	680.4000244
1408.691189	687.0
1409.219852	689.4000244
1409.74846	707.5999756
1410.277013	705.7999878
1410.80551	691.0
1411.333952	681.4000244
1411.862339	680.4000244
1412.39067	680.0
1412.918946	680.2000122
1413.447167	679.2000122
1413.975333	676.7999878
1414.503444	677.7999878
1415.031499	674.0
1415.559499	685.4000244
1416.087444	677.0
1416.615333	676.0
1417.143167	676.0
1417.670947	679.4000244
1418.19867	675.5999756
1418.726339	676.7999878
1419.253952	676.7999878
1419.781511	676.2000122
1420.309014	678.4000244
1420.836461	677.7999878
1421.363854	675.7999878
1421.891191	678.7999878
1422.418474	677.4000244
1422.945701	674.2000122
1423.472872	679.5999756
1423.999989	680.4000244
1424.52705	673.5999756
1425.054057	676.4000244
1425.581008	678.2000122
1426.107904	674.5999756
1426.634745	676.5999756
1427.16153	675.0
1427.688261	677.4000244
1428.214936	675.2000122
1428.741556	676.2000122
1429.268121	677.0
1429.794631	671.7999878
1430.321085	678.0
1430.847485	679.5999756
1431.373829	676.2000122
1431.900118	679.4000244
1432.426353	675.7999878
1432.952532	678.4000244
1433.478655	676.2000122
1434.004724	677.7999878
1434.530738	678.7999878
1435.056696	676.4000244
1435.5826	676.7999878
1436.108448	676.0
1436.634241	677.5999756
1437.159979	677.0
1437.685662	674.4000244
1438.21129	674.5999756
1438.736863	674.5999756
1439.262381	677.5999756
1439.787843	674.7999878
1440.313251	676.0
1440.838603	676.2000122
1441.3639	674.5999756
1441.889143	675.2000122
1442.41433	676.0
1442.939462	678.0
1443.464539	673.0
1443.989561	676.4000244
1444.514528	672.7999878
1445.03944	676.0
1445.564297	677.2000122
1446.089099	675.7999878
1446.613846	675.7999878
1447.138537	675.5999756
1447.663174	674.2000122
1448.187756	679.0
1448.712282	675.0
1449.236754	678.4000244
1449.761171	676.7999878
1450.285532	674.0
1450.809839	674.5999756
1451.33409	673.5999756
1451.858287	675.5999756
1452.382428	674.2000122
1452.906515	672.5999756
1453.430546	670.4000244
1453.954523	672.2000122
1454.478444	675.2000122
1455.002311	675.0
1455.526123	675.5999756
1456.049879	677.7999878
1456.573581	676.0
1457.097227	676.0
1457.620819	671.7999878
1458.144356	674.5999756
1458.667837	675.0
1459.191264	677.2000122
1459.714636	678.5999756
1460.237952	674.7999878
1460.761214	676.5999756
1461.284421	674.5999756
1461.807573	675.5999756
1462.33067	676.2000122
1462.853712	675.4000244
1463.376699	674.4000244
1463.899632	675.5999756
1464.422509	676.7999878
1464.945331	674.0
1465.468099	676.2000122
1465.990811	676.0
1466.513469	677.2000122
1467.036071	673.7999878
1467.558619	676.4000244
1468.081112	672.4000244
1468.60355	673.4000244
1469.125933	671.5999756
1469.648261	671.5999756
1470.170534	678.5999756
1470.692752	673.5999756
1471.214916	676.0
1471.737024	672.2000122
1472.259078	675.2000122
1472.781077	674.5999756
1473.303021	673.0
1473.82491	675.5999756
1474.346744	672.4000244
1474.868523	677.0
1475.390248	673.7999878
1475.911917	673.2000122
1476.433532	674.2000122
1476.955092	671.0
1477.476597	674.5999756
1477.998047	671.7999878
1478.519442	674.0
1479.040783	676.2000122
1479.562068	674.0
1480.083299	673.7999878
1480.604475	674.7999878
1481.125596	676.0
1481.646663	676.4000244
1482.167674	672.7999878
1482.688631	669.5999756
1483.209533	673.7999878
1483.73038	671.7999878
1484.251172	673.7999878
1484.771909	673.7999878
1485.292592	672.2000122
1485.81322	672.7999878
1486.333793	676.5999756
1486.854311	674.2000122
1487.374775	678.0
1487.895183	674.2000122
1488.415537	674.4000244
1488.935836	671.2000122
1489.456081	672.2000122
1489.97627	673.4000244
1490.496405	673.5999756
1491.016485	674.7999878
1491.536511	672.5999756
1492.056481	674.5999756
1492.576397	674.0
1493.096258	674.7999878
1493.616064	675.5999756
1494.135816	675.2000122
1494.655513	672.0
1495.175155	672.7999878
1495.694742	673.2000122
1496.214274	674.7999878
1496.733752	671.0
1497.253175	672.7999878
1497.772544	673.5999756
1498.291858	674.0
1498.811116	676.0
1499.330321	671.4000244
1499.84947	681.2000122
1500.368565	674.5999756
1500.887605	673.4000244
1501.406591	673.2000122
1501.925521	672.2000122
1502.444397	672.7999878
1502.963219	671.4000244
1503.481985	672.4000244
1504.000697	671.5999756
1504.519355	676.2000122
1505.037957	673.4000244
1505.556505	674.0
1506.074999	671.5999756
1506.593437	674.2000122
1507.111821	673.7999878
1507.63015	674.2000122
1508.148425	674.0
1508.666645	672.2000122
1509.18481	671.2000122
1509.702921	674.7999878
1510.220977	672.0
1510.738979	680.4000244
1511.256925	674.4000244
1511.774817	674.0
1512.292655	674.4000244
1512.810438	673.7999878
1513.328166	675.2000122
1513.84584	675.2000122
1514.363459	675.7999878
1514.881023	673.0
1515.398533	675.2000122
1515.915988	672.7999878
1516.433389	674.0
1516.950734	674.5999756
1517.468026	673.2000122
1517.985263	673.7999878
1518.502445	672.0
1519.019572	677.4000244
1519.536645	877.0
1521.087537	672.0
1521.604392	671.5999756
1522.121192	673.2000122
1522.637937	670.7999878
1523.154628	675.4000244
1523.671265	671.7999878
1524.187847	676.2000122
1524.704374	672.2000122
1525.220847	670.5999756
1525.737265	670.7999878
1526.253629	671.7999878
1526.769938	671.7999878
1527.286192	673.4000244
1527.802392	672.0
1528.318538	673.7999878
1528.834629	675.4000244
1529.350666	676.0
1529.866648	672.2000122
1530.382575	671.5999756
1530.898448	669.7999878
1531.414266	673.7999878
1531.93003	671.2000122
1532.44574	670.7999878
1532.961395	673.5999756
1533.476995	675.4000244
1533.992541	672.7999878
1534.508033	672.5999756
1535.02347	670.7999878
1535.538852	670.0
1536.05418	670.4000244
1536.569454	674.2000122
1537.084673	672.0
1537.599837	668.7999878
1538.114947	676.7999878
1538.630003	672.5999756
1539.145004	674.0
1539.659951	672.7999878
1540.174843	673.0
1540.689681	672.7999878
1541.204465	673.4000244
1541.719194	672.7999878
1542.233868	673.2000122
1542.748488	669.0
1543.263054	669.4000244
1543.777565	670.4000244
1544.292022	674.0
1544.806424	673.4000244
1545.320772	669.0
1545.835066	673.0
1546.349305	671.0
1546.863489	673.0
1547.37762	673.4000244
1547.891696	674.7999878
1548.405717	672.2000122
1548.919684	671.5999756
1549.433597	673.7999878
1549.947455	676.2000122
1550.461259	673.2000122
1550.975009	671.5999756
1551.488704	673.2000122
1552.002345	672.4000244
1552.515931	674.0
1553.029463	669.7999878
1553.542941	674.2000122
1554.056364	670.4000244
1554.569733	672.5999756
1555.083048	669.7999878
1555.596308	670.5999756
1556.109514	674.0
1556.622665	670.0
1557.135762	673.2000122
1557.648805	675.2000122
1558.161794	673.2000122
1558.674728	674.4000244
1559.187608	673.4000244
1559.700433	675.4000244
1560.213205	671.2000122
1560.725921	671.7999878
1561.238584	675.2000122
1561.751192	674.0
1562.263746	674.4000244
1562.776246	672.0
1563.288691	670.2000122
1563.801082	671.7999878
1564.313419	673.2000122
1564.825701	672.5999756
1565.337929	672.7999878
1565.850103	670.7999878
1566.362223	673.2000122
1566.874288	673.7999878
1567.386299	672.5999756
1567.898256	672.0
1568.410158	674.0
1568.922007	671.7999878
1569.4338	674.7999878
1569.94554	671.4000244
1570.457226	670.0
1570.968857	673.0
1571.480434	669.2000122
1571.991956	671.0
1572.503425	673.7999878
1573.014839	673.4000244
1573.526199	672.5999756
1574.037505	670.7999878
1574.548756	672.0
1575.059953	672.2000122
1575.571096	671.5999756
1576.082185	673.4000244
1576.59322	673.7999878
1577.1042	669.5999756
1577.615126	673.4000244
1578.125998	670.5999756
1578.636816	671.4000244
1579.14758	673.4000244
1579.658289	671.0
1580.168944	673.4000244
1580.679545	671.7999878
1581.190092	674.2000122
1581.700585	672.5999756
1582.211023	671.2000122
1582.721407	671.2000122
1583.231737	672.5999756
1583.742013	674.0
1584.252235	670.5999756
1584.762403	673.0
1585.272516	672.5999756
1585.782575	673.0
1586.292581	675.0
1586.802532	675.2000122
1587.312428	672.4000244
1587.822271	673.2000122
1588.33206	672.5999756
1588.841794	671.5999756
1589.351474	671.7999878
1589.8611	673.4000244
1590.370672	668.5999756
1590.88019	672.4000244
1591.389654	670.7999878
1591.899064	670.5999756
1592.408419	671.7999878
