 1.041424896E+03	 6.925999756E+02
 1.041991421E+03	 6.905999756E+02
 1.042557888E+03	 6.887999878E+02
 1.043124298E+03	 6.922000122E+02
 1.043690649E+03	 6.927999878E+02
 1.044256943E+03	 6.910000000E+02
 1.044823179E+03	 6.917999878E+02
 1.045389358E+03	 6.874000244E+02
 1.045955478E+03	 6.912000122E+02
 1.046521541E+03	 6.857999878E+02
 1.047087546E+03	 6.895999756E+02
 1.047653494E+03	 6.864000244E+02
 1.048219384E+03	 6.877999878E+02
 1.048785216E+03	 6.915999756E+02
 1.049350990E+03	 6.875999756E+02
 1.049916707E+03	 6.902000122E+02
 1.050482365E+03	 6.892000122E+02
 1.051047967E+03	 6.897999878E+02
 1.051613510E+03	 6.830000000E+02
 1.052178996E+03	 6.872000122E+02
 1.052744424E+03	 6.847999878E+02
 1.053309795E+03	 6.865999756E+02
 1.053875107E+03	 6.917999878E+02
 1.054440362E+03	 6.892000122E+02
 1.055005560E+03	 6.857999878E+02
 1.055570699E+03	 6.832000122E+02
 1.056135782E+03	 6.857999878E+02
 1.056700806E+03	 6.845999756E+02
 1.057265773E+03	 6.864000244E+02
 1.057830682E+03	 6.850000000E+02
 1.058395533E+03	 6.884000244E+02
 1.058960327E+03	 6.842000122E+02
 1.059525063E+03	 6.840000000E+02
 1.060089742E+03	 6.890000000E+02
 1.060654363E+03	 6.875999756E+02
 1.061218926E+03	 6.832000122E+02
 1.061783432E+03	 6.852000122E+02
 1.062347880E+03	 6.864000244E+02
 1.062912270E+03	 6.845999756E+02
 1.063476603E+03	 6.884000244E+02
 1.064040878E+03	 6.857999878E+02
 1.064605096E+03	 6.855999756E+02
 1.065169256E+03	 6.862000122E+02
 1.065733358E+03	 6.840000000E+02
 1.066297403E+03	 6.814000244E+02
 1.066861390E+03	 6.862000122E+02
 1.067425320E+03	 6.874000244E+02
 1.067989192E+03	 6.825999756E+02
 1.068553006E+03	 6.817999878E+02
 1.069116763E+03	 6.900000000E+02
 1.069680462E+03	 6.824000244E+02
 1.070244104E+03	 6.854000244E+02
 1.070807688E+03	 6.857999878E+02
 1.071371215E+03	 6.855999756E+02
 1.071934684E+03	 6.837999878E+02
 1.072498096E+03	 6.855999756E+02
 1.073061450E+03	 6.834000244E+02
 1.073624746E+03	 6.837999878E+02
 1.074187985E+03	 6.855999756E+02
 1.074751166E+03	 6.825999756E+02
 1.075314290E+03	 6.830000000E+02
 1.075877357E+03	 6.835999756E+02
 1.076440365E+03	 6.865999756E+02
 1.077003317E+03	 6.830000000E+02
 1.077566211E+03	 6.872000122E+02
 1.078129047E+03	 6.837999878E+02
 1.078691826E+03	 6.835999756E+02
 1.079254547E+03	 6.807999878E+02
 1.079817211E+03	 6.867999878E+02
 1.080379817E+03	 6.840000000E+02
 1.080942366E+03	 6.844000244E+02
 1.081504857E+03	 6.845999756E+02
 1.082067291E+03	 6.830000000E+02
 1.082629667E+03	 6.832000122E+02
 1.083191986E+03	 6.812000122E+02
 1.083754248E+03	 6.850000000E+02
 1.084316452E+03	 6.812000122E+02
 1.084878598E+03	 6.845999756E+02
 1.085440687E+03	 6.842000122E+02
 1.086002719E+03	 6.835999756E+02
 1.086564693E+03	 6.855999756E+02
 1.087126610E+03	 6.834000244E+02
 1.087688469E+03	 6.847999878E+02
 1.088250271E+03	 6.840000000E+02
 1.088812015E+03	 6.795999756E+02
 1.089373702E+03	 6.834000244E+02
 1.089935332E+03	 6.844000244E+02
 1.090496904E+03	 6.810000000E+02
 1.091058419E+03	 6.825999756E+02
 1.091619876E+03	 6.835999756E+02
 1.092181276E+03	 6.825999756E+02
 1.092742619E+03	 6.860000000E+02
 1.093303904E+03	 6.824000244E+02
 1.093865132E+03	 6.827999878E+02
 1.094426302E+03	 6.817999878E+02
 1.094987415E+03	 6.827999878E+02
 1.095548470E+03	 6.805999756E+02
 1.096109469E+03	 6.894000244E+02
 1.096670409E+03	 6.815999756E+02
 1.097231293E+03	 6.864000244E+02
 1.097792119E+03	 6.812000122E+02
 1.098352888E+03	 6.832000122E+02
 1.098913599E+03	 6.854000244E+02
 1.099474253E+03	 6.822000122E+02
 1.100034850E+03	 6.817999878E+02
 1.100595389E+03	 6.827999878E+02
 1.101155871E+03	 6.804000244E+02
 1.101716295E+03	 6.820000000E+02
 1.102276663E+03	 6.824000244E+02
 1.102836973E+03	 6.834000244E+02
 1.103397225E+03	 6.820000000E+02
 1.103957421E+03	 6.817999878E+02
 1.104517559E+03	 6.810000000E+02
 1.105077639E+03	 6.824000244E+02
 1.105637663E+03	 6.825999756E+02
 1.106197629E+03	 6.795999756E+02
 1.106757537E+03	 6.825999756E+02
 1.107317389E+03	 6.805999756E+02
 1.107877183E+03	 6.797999878E+02
 1.108436920E+03	 6.815999756E+02
 1.108996600E+03	 6.855999756E+02
 1.109556222E+03	 6.795999756E+02
 1.110115787E+03	 6.807999878E+02
 1.110675295E+03	 6.820000000E+02
 1.111234745E+03	 6.832000122E+02
 1.111794138E+03	 6.804000244E+02
 1.112353474E+03	 6.825999756E+02
 1.112912753E+03	 6.837999878E+02
 1.113471974E+03	 6.844000244E+02
 1.114031138E+03	 6.802000122E+02
 1.114590245E+03	 6.810000000E+02
 1.115149295E+03	 6.825999756E+02
 1.115708288E+03	 6.795999756E+02
 1.116267223E+03	 6.827999878E+02
 1.116826101E+03	 6.835999756E+02
 1.117384921E+03	 6.790000000E+02
 1.117943685E+03	 6.810000000E+02
 1.118502391E+03	 6.812000122E+02
 1.119061040E+03	 6.825999756E+02
 1.119619632E+03	 6.834000244E+02
 1.120178167E+03	 6.812000122E+02
 1.120736644E+03	 6.787999878E+02
 1.121295065E+03	 6.804000244E+02
 1.121853428E+03	 6.805999756E+02
 1.122411734E+03	 6.820000000E+02
 1.122969982E+03	 6.835999756E+02
 1.123528174E+03	 6.800000000E+02
 1.124086308E+03	 6.844000244E+02
 1.124644385E+03	 6.810000000E+02
 1.125202405E+03	 6.847999878E+02
 1.125760368E+03	 6.837999878E+02
 1.126318274E+03	 6.845999756E+02
 1.126876122E+03	 6.874000244E+02
 1.127433914E+03	 6.842000122E+02
 1.127991648E+03	 6.880000000E+02
 1.128549325E+03	 6.887999878E+02
 1.129106945E+03	 6.857999878E+02
 1.129664507E+03	 6.865999756E+02
 1.130222013E+03	 6.835999756E+02
 1.130779462E+03	 6.837999878E+02
 1.131336853E+03	 6.820000000E+02
 1.131894187E+03	 6.830000000E+02
 1.132451464E+03	 6.827999878E+02
 1.133008684E+03	 6.804000244E+02
 1.133565847E+03	 6.825999756E+02
 1.134122953E+03	 6.817999878E+02
 1.134680001E+03	 6.807999878E+02
 1.135236993E+03	 6.812000122E+02
 1.135793927E+03	 6.852000122E+02
 1.136350805E+03	 6.830000000E+02
 1.136907625E+03	 6.792000122E+02
 1.137464388E+03	 6.797999878E+02
 1.138021094E+03	 6.800000000E+02
 1.138577743E+03	 6.814000244E+02
 1.139134335E+03	 6.847999878E+02
 1.139690870E+03	 6.805999756E+02
 1.140247348E+03	 6.807999878E+02
 1.140803769E+03	 6.784000244E+02
 1.141360133E+03	 6.802000122E+02
 1.141916439E+03	 6.855999756E+02
 1.142472689E+03	 6.822000122E+02
 1.143028881E+03	 6.794000244E+02
 1.143585017E+03	 6.785999756E+02
 1.144141095E+03	 6.827999878E+02
 1.144697117E+03	 6.802000122E+02
 1.145253081E+03	 6.822000122E+02
 1.145808989E+03	 6.832000122E+02
 1.146364839E+03	 6.792000122E+02
 1.146920632E+03	 6.827999878E+02
 1.147476369E+03	 6.794000244E+02
 1.148032048E+03	 6.807999878E+02
 1.148587670E+03	 6.814000244E+02
 1.149143236E+03	 6.792000122E+02
 1.149698744E+03	 6.825999756E+02
 1.150254195E+03	 6.800000000E+02
 1.150809589E+03	 6.810000000E+02
 1.151364927E+03	 6.800000000E+02
 1.151920207E+03	 6.780000000E+02
 1.152475430E+03	 6.797999878E+02
 1.153030597E+03	 6.824000244E+02
 1.153585706E+03	 6.830000000E+02
 1.154140759E+03	 6.804000244E+02
 1.154695754E+03	 6.802000122E+02
 1.155250693E+03	 6.820000000E+02
 1.155805574E+03	 6.830000000E+02
 1.156360399E+03	 6.845999756E+02
 1.156915167E+03	 6.817999878E+02
 1.157469877E+03	 6.825999756E+02
 1.158024531E+03	 6.797999878E+02
 1.158579128E+03	 6.817999878E+02
 1.159133668E+03	 6.807999878E+02
 1.159688151E+03	 6.807999878E+02
 1.160242577E+03	 6.840000000E+02
 1.160796946E+03	 6.824000244E+02
 1.161351258E+03	 6.832000122E+02
 1.161905513E+03	 6.760000000E+02
 1.162459712E+03	 6.817999878E+02
 1.163013853E+03	 6.827999878E+02
 1.163567938E+03	 6.815999756E+02
 1.164121966E+03	 6.812000122E+02
 1.164675936E+03	 6.802000122E+02
 1.165229850E+03	 6.837999878E+02
 1.165783707E+03	 6.805999756E+02
 1.166337507E+03	 6.824000244E+02
 1.166891251E+03	 6.805999756E+02
 1.167444937E+03	 6.804000244E+02
 1.167998567E+03	 6.780000000E+02
 1.168552139E+03	 6.807999878E+02
 1.169105655E+03	 6.805999756E+02
 1.169659114E+03	 6.830000000E+02
 1.170212516E+03	 6.810000000E+02
 1.170765861E+03	 6.807999878E+02
 1.171319149E+03	 6.825999756E+02
 1.171872381E+03	 6.822000122E+02
 1.172425556E+03	 6.780000000E+02
 1.172978673E+03	 6.790000000E+02
 1.173531734E+03	 6.784000244E+02
 1.174084739E+03	 6.802000122E+02
 1.174637686E+03	 6.800000000E+02
 1.175190576E+03	 6.822000122E+02
 1.175743410E+03	 6.794000244E+02
 1.176296187E+03	 6.774000244E+02
 1.176848907E+03	 6.825999756E+02
 1.177401570E+03	 6.834000244E+02
 1.177954177E+03	 6.804000244E+02
 1.178506726E+03	 6.784000244E+02
 1.179059219E+03	 6.794000244E+02
 1.179611655E+03	 6.805999756E+02
 1.180164035E+03	 6.800000000E+02
 1.180716357E+03	 6.817999878E+02
 1.181268623E+03	 6.790000000E+02
 1.181820832E+03	 6.814000244E+02
 1.182372984E+03	 6.787999878E+02
 1.182925080E+03	 6.807999878E+02
 1.183477118E+03	 6.802000122E+02
 1.184029100E+03	 6.794000244E+02
 1.184581025E+03	 6.787999878E+02
 1.185132894E+03	 6.804000244E+02
 1.185684705E+03	 6.800000000E+02
 1.186236460E+03	 6.777999878E+02
 1.186788158E+03	 6.797999878E+02
 1.187339800E+03	 6.795999756E+02
 1.187891384E+03	 6.810000000E+02
 1.188442912E+03	 6.797999878E+02
 1.188994383E+03	 6.802000122E+02
 1.189545798E+03	 6.812000122E+02
 1.190097156E+03	 6.792000122E+02
 1.190648457E+03	 6.832000122E+02
 1.191199701E+03	 6.797999878E+02
 1.191750889E+03	 6.840000000E+02
 1.192302020E+03	 6.962000122E+02
 1.192853094E+03	 6.792000122E+02
 1.193404112E+03	 6.810000000E+02
 1.193955072E+03	 6.800000000E+02
 1.194505977E+03	 6.797999878E+02
 1.195056824E+03	 6.804000244E+02
 1.195607615E+03	 6.815999756E+02
 1.196158349E+03	 6.814000244E+02
 1.196709026E+03	 6.790000000E+02
 1.197259647E+03	 6.800000000E+02
 1.197810211E+03	 6.797999878E+02
 1.198360719E+03	 6.790000000E+02
 1.198911170E+03	 6.777999878E+02
 1.199461564E+03	 6.785999756E+02
 1.200011901E+03	 6.795999756E+02
 1.200562182E+03	 6.785999756E+02
 1.201112406E+03	 6.802000122E+02
 1.201662574E+03	 6.800000000E+02
 1.202212685E+03	 6.794000244E+02
 1.202762739E+03	 6.834000244E+02
 1.203312737E+03	 6.755999756E+02
 1.203862678E+03	 6.775999756E+02
 1.204412562E+03	 6.822000122E+02
 1.204962390E+03	 6.805999756E+02
 1.205512161E+03	 6.787999878E+02
 1.206061876E+03	 6.802000122E+02
 1.206611534E+03	 6.785999756E+02
 1.207161135E+03	 6.784000244E+02
 1.207710680E+03	 6.795999756E+02
 1.208260168E+03	 6.767999878E+02
 1.208809600E+03	 6.814000244E+02
 1.209358975E+03	 6.765999756E+02
 1.209908293E+03	 6.810000000E+02
 1.210457555E+03	 6.804000244E+02
 1.211006761E+03	 6.824000244E+02
 1.211555909E+03	 6.797999878E+02
 1.212105001E+03	 6.812000122E+02
 1.212654037E+03	 6.802000122E+02
 1.213203016E+03	 6.795999756E+02
 1.213751939E+03	 6.774000244E+02
 1.214300804E+03	 6.775999756E+02
 1.214849614E+03	 6.794000244E+02
 1.215398367E+03	 6.784000244E+02
 1.215947063E+03	 6.822000122E+02
 1.216495703E+03	 6.792000122E+02
 1.217044286E+03	 6.805999756E+02
 1.217592813E+03	 6.817999878E+02
 1.218141283E+03	 6.804000244E+02
 1.218689696E+03	 6.802000122E+02
 1.219238053E+03	 6.797999878E+02
 1.219786354E+03	 6.814000244E+02
 1.220334598E+03	 6.832000122E+02
 1.220882786E+03	 6.822000122E+02
 1.221430917E+03	 6.835999756E+02
 1.221978991E+03	 6.827999878E+02
 1.222527010E+03	 6.810000000E+02
 1.223074971E+03	 6.805999756E+02
 1.223622876E+03	 6.812000122E+02
 1.224170725E+03	 6.847999878E+02
 1.224718517E+03	 6.814000244E+02
 1.225266253E+03	 6.807999878E+02
 1.225813932E+03	 6.815999756E+02
 1.226361555E+03	 6.825999756E+02
 1.226909121E+03	 6.794000244E+02
 1.227456631E+03	 6.822000122E+02
 1.228004084E+03	 6.825999756E+02
 1.228551481E+03	 6.784000244E+02
 1.229098821E+03	 6.824000244E+02
 1.229646105E+03	 6.804000244E+02
 1.230193333E+03	 6.814000244E+02
 1.230740504E+03	 6.837999878E+02
 1.231287618E+03	 6.797999878E+02
 1.231834677E+03	 6.800000000E+02
 1.232381678E+03	 6.817999878E+02
 1.232928624E+03	 6.842000122E+02
 1.233475513E+03	 6.790000000E+02
 1.234022345E+03	 6.832000122E+02
 1.234569121E+03	 6.837999878E+02
 1.235115841E+03	 6.815999756E+02
 1.235662504E+03	 6.825999756E+02
 1.236209111E+03	 6.860000000E+02
 1.236755662E+03	 6.800000000E+02
 1.237302156E+03	 6.840000000E+02
 1.237848593E+03	 6.814000244E+02
 1.238394975E+03	 6.824000244E+02
 1.238941300E+03	 6.817999878E+02
 1.239487568E+03	 6.875999756E+02
 1.240033780E+03	 6.855999756E+02
 1.240579936E+03	 6.865999756E+02
 1.241126036E+03	 6.832000122E+02
 1.241672079E+03	 6.830000000E+02
 1.242218065E+03	 6.822000122E+02
 1.242763996E+03	 6.814000244E+02
 1.243309870E+03	 6.804000244E+02
 1.243855687E+03	 6.837999878E+02
 1.244401449E+03	 6.844000244E+02
 1.244947153E+03	 6.842000122E+02
 1.245492802E+03	 6.844000244E+02
 1.246038394E+03	 6.862000122E+02
 1.246583930E+03	 6.834000244E+02
 1.247129410E+03	 6.857999878E+02
 1.247674833E+03	 6.844000244E+02
 1.248220200E+03	 6.817999878E+02
 1.248765511E+03	 6.874000244E+02
 1.249310765E+03	 6.870000000E+02
 1.249855963E+03	 6.887999878E+02
 1.250401105E+03	 6.877999878E+02
 1.250946190E+03	 6.830000000E+02
 1.251491219E+03	 6.800000000E+02
 1.252036192E+03	 6.814000244E+02
 1.252581108E+03	 6.844000244E+02
 1.253125968E+03	 6.867999878E+02
 1.253670772E+03	 6.842000122E+02
 1.254215520E+03	 6.824000244E+02
 1.254760211E+03	 6.842000122E+02
 1.255304846E+03	 6.834000244E+02
 1.255849425E+03	 6.845999756E+02
 1.256393948E+03	 6.855999756E+02
 1.256938414E+03	 6.854000244E+02
 1.257482824E+03	 6.852000122E+02
 1.258027178E+03	 6.910000000E+02
 1.258571475E+03	 6.854000244E+02
 1.259115717E+03	 7.002000122E+02
 1.259659902E+03	 6.915999756E+02
 1.260204030E+03	 6.867999878E+02
 1.260748103E+03	 6.880000000E+02
 1.261292119E+03	 6.860000000E+02
 1.261836079E+03	 6.860000000E+02
 1.262379983E+03	 6.907999878E+02
 1.262923831E+03	 6.977999878E+02
 1.263467622E+03	 7.010000000E+02
 1.264011357E+03	 7.124000244E+02
 1.264555036E+03	 7.404000244E+02
 1.265098659E+03	 7.814000244E+02
 1.265642225E+03	 7.605999756E+02
 1.266185736E+03	 7.247999878E+02
 1.266729190E+03	 7.005999756E+02
 1.267272588E+03	 6.987999878E+02
 1.267815930E+03	 6.877999878E+02
 1.268359215E+03	 6.875999756E+02
 1.268902444E+03	 6.872000122E+02
 1.269445618E+03	 6.872000122E+02
 1.269988735E+03	 6.900000000E+02
 1.270531796E+03	 6.832000122E+02
 1.271074800E+03	 6.854000244E+02
 1.271617749E+03	 6.872000122E+02
 1.272160641E+03	 6.854000244E+02
 1.272703477E+03	 6.884000244E+02
 1.273246257E+03	 6.847999878E+02
 1.273788981E+03	 6.864000244E+02
 1.274331649E+03	 6.900000000E+02
 1.274874260E+03	 6.847999878E+02
 1.275416816E+03	 6.850000000E+02
 1.275959315E+03	 6.835999756E+02
 1.276501758E+03	 6.865999756E+02
 1.277044145E+03	 6.834000244E+02
 1.277586476E+03	 6.884000244E+02
 1.278128751E+03	 6.854000244E+02
 1.278670970E+03	 6.895999756E+02
 1.279213132E+03	 6.864000244E+02
 1.279755239E+03	 6.867999878E+02
 1.280297289E+03	 6.935999756E+02
 1.280839283E+03	 6.915999756E+02
 1.281381221E+03	 6.972000122E+02
 1.281923103E+03	 6.995999756E+02
 1.282464929E+03	 7.055999756E+02
 1.283006699E+03	 7.194000244E+02
 1.283548413E+03	 7.495999756E+02
 1.284090071E+03	 8.290000000E+02
 1.284631672E+03	 1.104199951E+03
 1.285173218E+03	 1.848599976E+03
 1.285714707E+03	 1.827199951E+03
 1.286256141E+03	 1.045199951E+03
 1.286797518E+03	 7.850000000E+02
 1.287338839E+03	 7.350000000E+02
 1.287880104E+03	 7.135999756E+02
 1.288421313E+03	 7.044000244E+02
 1.288962466E+03	 7.004000244E+02
 1.289503563E+03	 6.927999878E+02
 1.290044604E+03	 6.894000244E+02
 1.290585589E+03	 6.924000244E+02
 1.291126518E+03	 6.912000122E+02
 1.291667391E+03	 6.877999878E+02
 1.292208208E+03	 6.882000122E+02
 1.292748969E+03	 6.880000000E+02
 1.293289674E+03	 6.865999756E+02
 1.293830322E+03	 6.855999756E+02
 1.294370915E+03	 6.867999878E+02
 1.294911452E+03	 6.880000000E+02
 1.295451933E+03	 6.852000122E+02
 1.295992357E+03	 6.840000000E+02
 1.296532726E+03	 6.857999878E+02
 1.297073039E+03	 6.860000000E+02
 1.297613295E+03	 6.877999878E+02
 1.298153496E+03	 6.825999756E+02
 1.298693641E+03	 6.842000122E+02
 1.299233730E+03	 6.850000000E+02
 1.299773762E+03	 6.880000000E+02
 1.300313739E+03	 6.862000122E+02
 1.300853660E+03	 6.837999878E+02
 1.301393525E+03	 6.837999878E+02
 1.301933334E+03	 6.857999878E+02
 1.302473087E+03	 6.834000244E+02
 1.303012784E+03	 6.844000244E+02
 1.303552425E+03	 6.802000122E+02
 1.304092010E+03	 6.862000122E+02
 1.304631539E+03	 6.837999878E+02
 1.305171012E+03	 6.824000244E+02
 1.305710429E+03	 6.850000000E+02
 1.306249790E+03	 6.872000122E+02
 1.306789096E+03	 6.827999878E+02
 1.307328345E+03	 6.814000244E+02
 1.307867539E+03	 6.860000000E+02
 1.308406676E+03	 6.844000244E+02
 1.308945758E+03	 6.850000000E+02
 1.309484784E+03	 6.820000000E+02
 1.310023753E+03	 6.832000122E+02
 1.310562667E+03	 6.857999878E+02
 1.311101525E+03	 6.870000000E+02
 1.311640327E+03	 6.837999878E+02
 1.312179074E+03	 6.834000244E+02
 1.312717764E+03	 6.840000000E+02
 1.313256398E+03	 6.825999756E+02
 1.313794977E+03	 6.822000122E+02
 1.314333499E+03	 6.817999878E+02
 1.314871966E+03	 6.825999756E+02
 1.315410377E+03	 6.835999756E+02
 1.315948732E+03	 6.767999878E+02
 1.316487031E+03	 6.820000000E+02
 1.317025274E+03	 6.844000244E+02
 1.317563462E+03	 6.850000000E+02
 1.318101593E+03	 6.847999878E+02
 1.318639669E+03	 6.812000122E+02
 1.319177689E+03	 6.824000244E+02
 1.319715653E+03	 6.854000244E+02
 1.320253561E+03	 6.860000000E+02
 1.320791413E+03	 6.815999756E+02
 1.321329210E+03	 6.817999878E+02
 1.321866950E+03	 6.822000122E+02
 1.322404635E+03	 6.822000122E+02
 1.322942264E+03	 6.865999756E+02
 1.323479837E+03	 6.790000000E+02
 1.324017354E+03	 6.840000000E+02
 1.324554816E+03	 6.834000244E+02
 1.325092221E+03	 6.854000244E+02
 1.325629571E+03	 6.807999878E+02
 1.326166865E+03	 6.830000000E+02
 1.326704103E+03	 6.847999878E+02
 1.327241286E+03	 6.852000122E+02
 1.327778412E+03	 6.842000122E+02
 1.328315483E+03	 6.825999756E+02
 1.328852498E+03	 6.834000244E+02
 1.329389457E+03	 6.794000244E+02
 1.329926361E+03	 6.817999878E+02
 1.330463208E+03	 6.834000244E+02
 1.331000000E+03	 6.802000122E+02
 1.331536736E+03	 6.820000000E+02
 1.332073417E+03	 6.840000000E+02
 1.332610041E+03	 6.814000244E+02
 1.333146610E+03	 6.775999756E+02
 1.333683123E+03	 6.845999756E+02
 1.334219581E+03	 6.804000244E+02
 1.334755982E+03	 6.820000000E+02
 1.335292328E+03	 6.824000244E+02
 1.335828618E+03	 6.815999756E+02
 1.336364852E+03	 6.814000244E+02
 1.336901031E+03	 6.817999878E+02
 1.337437154E+03	 6.815999756E+02
 1.337973221E+03	 6.792000122E+02
 1.338509232E+03	 6.857999878E+02
 1.339045188E+03	 6.825999756E+02
 1.339581088E+03	 6.854000244E+02
 1.340116932E+03	 6.827999878E+02
 1.340652720E+03	 6.777999878E+02
 1.341188453E+03	 6.812000122E+02
 1.341724130E+03	 6.810000000E+02
 1.342259751E+03	 6.830000000E+02
 1.342795317E+03	 6.844000244E+02
 1.343330827E+03	 6.832000122E+02
 1.343866281E+03	 6.810000000E+02
 1.344401680E+03	 6.834000244E+02
 1.344937023E+03	 6.830000000E+02
 1.345472310E+03	 6.800000000E+02
 1.346007541E+03	 6.807999878E+02
 1.346542717E+03	 6.834000244E+02
 1.347077837E+03	 6.814000244E+02
 1.347612902E+03	 6.824000244E+02
 1.348147911E+03	 6.810000000E+02
 1.348682864E+03	 6.810000000E+02
 1.349217761E+03	 6.820000000E+02
 1.349752603E+03	 6.827999878E+02
 1.350287389E+03	 6.825999756E+02
 1.350822120E+03	 6.782000122E+02
 1.351356795E+03	 6.835999756E+02
 1.351891414E+03	 6.827999878E+02
 1.352425978E+03	 6.830000000E+02
 1.352960485E+03	 6.775999756E+02
 1.353494938E+03	 6.815999756E+02
 1.354029334E+03	 6.805999756E+02
 1.354563676E+03	 6.822000122E+02
 1.355097961E+03	 6.815999756E+02
 1.355632191E+03	 6.835999756E+02
 1.356166365E+03	 6.847999878E+02
 1.356700484E+03	 6.835999756E+02
 1.357234547E+03	 6.814000244E+02
 1.357768554E+03	 6.847999878E+02
 1.358302506E+03	 6.837999878E+02
 1.358836402E+03	 6.862000122E+02
 1.359370242E+03	 6.815999756E+02
 1.359904027E+03	 6.842000122E+02
 1.360437757E+03	 6.877999878E+02
 1.360971431E+03	 6.825999756E+02
 1.361505049E+03	 6.837999878E+02
 1.362038612E+03	 6.812000122E+02
 1.362572119E+03	 6.834000244E+02
 1.363105570E+03	 6.872000122E+02
 1.363638966E+03	 6.845999756E+02
 1.364172306E+03	 6.832000122E+02
 1.364705591E+03	 6.795999756E+02
 1.365238821E+03	 6.834000244E+02
 1.365771994E+03	 6.844000244E+02
 1.366305112E+03	 6.895999756E+02
 1.366838175E+03	 6.874000244E+02
 1.367371182E+03	 6.837999878E+02
 1.367904133E+03	 6.832000122E+02
 1.368437029E+03	 6.824000244E+02
 1.368969870E+03	 6.877999878E+02
 1.369502655E+03	 6.892000122E+02
 1.370035384E+03	 7.090000000E+02
 1.370568058E+03	 7.195999756E+02
 1.371100676E+03	 6.905999756E+02
 1.371633239E+03	 6.857999878E+02
 1.372165746E+03	 6.850000000E+02
 1.372698198E+03	 6.825999756E+02
 1.373230594E+03	 6.844000244E+02
 1.373762935E+03	 6.845999756E+02
 1.374295221E+03	 6.884000244E+02
 1.374827450E+03	 6.830000000E+02
 1.375359625E+03	 6.827999878E+02
 1.375891743E+03	 6.844000244E+02
 1.376423807E+03	 6.882000122E+02
 1.376955814E+03	 6.865999756E+02
 1.377487767E+03	 6.847999878E+02
 1.378019664E+03	 6.882000122E+02
 1.378551505E+03	 6.874000244E+02
 1.379083291E+03	 6.840000000E+02
 1.379615021E+03	 6.847999878E+02
 1.380146696E+03	 6.894000244E+02
 1.380678316E+03	 6.857999878E+02
 1.381209880E+03	 6.912000122E+02
 1.381741389E+03	 6.904000244E+02
 1.382272842E+03	 6.904000244E+02
 1.382804239E+03	 6.924000244E+02
 1.383335582E+03	 6.902000122E+02
 1.383866869E+03	 6.925999756E+02
 1.384398100E+03	 6.922000122E+02
 1.384929276E+03	 7.062000122E+02
 1.385460396E+03	 7.115999756E+02
 1.385991462E+03	 7.240000000E+02
 1.386522471E+03	 7.360000000E+02
 1.387053425E+03	 7.705999756E+02
 1.387584324E+03	 9.037999878E+02
 1.388115168E+03	 1.550800049E+03
 1.388645956E+03	 3.027800049E+03
 1.389176688E+03	 2.113199951E+03
 1.389707366E+03	 9.862000122E+02
 1.390237987E+03	 7.807999878E+02
 1.390768554E+03	 7.300000000E+02
 1.391299065E+03	 7.090000000E+02
 1.391829520E+03	 7.047999878E+02
 1.392359921E+03	 7.002000122E+02
 1.392890266E+03	 6.984000244E+02
 1.393420555E+03	 6.957999878E+02
 1.393950789E+03	 6.902000122E+02
 1.394480968E+03	 6.902000122E+02
 1.395011091E+03	 6.920000000E+02
 1.395541159E+03	 6.900000000E+02
 1.396071172E+03	 6.902000122E+02
 1.396601129E+03	 6.865999756E+02
 1.397131031E+03	 6.902000122E+02
 1.397660877E+03	 6.870000000E+02
 1.398190669E+03	 6.862000122E+02
 1.398720405E+03	 6.854000244E+02
 1.399250085E+03	 6.824000244E+02
 1.399779710E+03	 6.864000244E+02
 1.400309280E+03	 6.847999878E+02
 1.400838795E+03	 6.842000122E+02
 1.401368254E+03	 6.825999756E+02
 1.401897658E+03	 6.837999878E+02
 1.402427006E+03	 6.825999756E+02
 1.402956299E+03	 6.844000244E+02
 1.403485537E+03	 6.875999756E+02
 1.404014720E+03	 6.840000000E+02
 1.404543847E+03	 6.890000000E+02
 1.405072919E+03	 6.840000000E+02
 1.405601936E+03	 6.844000244E+02
 1.406130897E+03	 6.865999756E+02
 1.406659803E+03	 6.904000244E+02
 1.407188654E+03	 6.932000122E+02
 1.407717449E+03	 6.932000122E+02
 1.408246190E+03	 7.007999878E+02
 1.408774874E+03	 7.100000000E+02
 1.409303504E+03	 7.490000000E+02
 1.409832078E+03	 8.420000000E+02
 1.410360598E+03	 8.434000244E+02
 1.410889061E+03	 7.425999756E+02
 1.411417470E+03	 7.065999756E+02
 1.411945823E+03	 6.932000122E+02
 1.412474121E+03	 6.925999756E+02
 1.413002364E+03	 6.900000000E+02
 1.413530551E+03	 6.885999756E+02
 1.414058684E+03	 6.835999756E+02
 1.414586761E+03	 6.924000244E+02
 1.415114782E+03	 6.797999878E+02
 1.415642749E+03	 6.847999878E+02
 1.416170660E+03	 6.840000000E+02
 1.416698516E+03	 6.810000000E+02
 1.417226317E+03	 6.767999878E+02
 1.417754063E+03	 6.805999756E+02
 1.418281753E+03	 6.804000244E+02
 1.418809388E+03	 6.807999878E+02
 1.419336968E+03	 6.815999756E+02
 1.419864493E+03	 6.844000244E+02
 1.420391962E+03	 6.827999878E+02
 1.420919377E+03	 6.820000000E+02
 1.421446736E+03	 6.810000000E+02
 1.421974040E+03	 6.814000244E+02
 1.422501289E+03	 6.827999878E+02
 1.423028482E+03	 6.840000000E+02
 1.423555620E+03	 6.840000000E+02
 1.424082703E+03	 6.852000122E+02
 1.424609731E+03	 6.847999878E+02
 1.425136704E+03	 6.820000000E+02
 1.425663622E+03	 6.860000000E+02
 1.426190484E+03	 6.857999878E+02
 1.426717291E+03	 6.847999878E+02
 1.427244044E+03	 6.805999756E+02
 1.427770740E+03	 6.832000122E+02
 1.428297382E+03	 6.804000244E+02
 1.428823969E+03	 6.820000000E+02
 1.429350500E+03	 6.845999756E+02
 1.429876977E+03	 6.765999756E+02
 1.430403398E+03	 6.817999878E+02
 1.430929764E+03	 6.780000000E+02
 1.431456075E+03	 6.767999878E+02
 1.431982330E+03	 6.797999878E+02
 1.432508531E+03	 6.802000122E+02
 1.433034676E+03	 6.812000122E+02
 1.433560767E+03	 6.805999756E+02
 1.434086802E+03	 6.802000122E+02
 1.434612782E+03	 6.785999756E+02
 1.435138707E+03	 6.827999878E+02
 1.435664577E+03	 6.807999878E+02
 1.436190392E+03	 6.797999878E+02
 1.436716151E+03	 6.772000122E+02
 1.437241856E+03	 6.795999756E+02
 1.437767505E+03	 6.787999878E+02
 1.438293099E+03	 6.785999756E+02
 1.438818639E+03	 6.795999756E+02
 1.439344123E+03	 6.784000244E+02
 1.439869552E+03	 6.762000122E+02
 1.440394926E+03	 6.765999756E+02
 1.440920245E+03	 6.784000244E+02
 1.441445509E+03	 6.817999878E+02
 1.441970717E+03	 6.757999878E+02
 1.442495871E+03	 6.794000244E+02
 1.443020970E+03	 6.774000244E+02
 1.443546013E+03	 6.784000244E+02
 1.444071002E+03	 6.780000000E+02
 1.444595935E+03	 6.765999756E+02
 1.445120813E+03	 6.762000122E+02
 1.445645637E+03	 6.790000000E+02
 1.446170405E+03	 6.755999756E+02
 1.446695118E+03	 6.765999756E+02
 1.447219776E+03	 6.755999756E+02
 1.447744379E+03	 6.794000244E+02
 1.448268928E+03	 6.764000244E+02
 1.448793421E+03	 6.764000244E+02
 1.449317859E+03	 6.760000000E+02
 1.449842242E+03	 6.810000000E+02
 1.450366570E+03	 6.784000244E+02
 1.450890843E+03	 6.750000000E+02
 1.451415061E+03	 6.782000122E+02
 1.451939223E+03	 6.747999878E+02
 1.452463331E+03	 6.742000122E+02
 1.452987384E+03	 6.775999756E+02
 1.453511382E+03	 6.752000122E+02
 1.454035325E+03	 6.784000244E+02
 1.454559213E+03	 6.745999756E+02
 1.455083046E+03	 6.742000122E+02
 1.455606824E+03	 6.715999756E+02
 1.456130547E+03	 6.752000122E+02
 1.456654215E+03	 6.754000244E+02
 1.457177828E+03	 6.764000244E+02
 1.457701386E+03	 6.807999878E+02
 1.458224889E+03	 6.740000000E+02
 1.458748337E+03	 6.777999878E+02
 1.459271730E+03	 6.752000122E+02
 1.459795068E+03	 6.762000122E+02
 1.460318351E+03	 6.784000244E+02
 1.460841580E+03	 6.732000122E+02
 1.461364753E+03	 6.757999878E+02
 1.461887871E+03	 6.762000122E+02
 1.462410935E+03	 6.775999756E+02
 1.462933943E+03	 6.764000244E+02
 1.463456897E+03	 6.767999878E+02
 1.463979795E+03	 6.742000122E+02
 1.464502639E+03	 6.732000122E+02
 1.465025427E+03	 6.750000000E+02
 1.465548161E+03	 6.754000244E+02
 1.466070840E+03	 6.730000000E+02
 1.466593464E+03	 6.725999756E+02
 1.467116033E+03	 6.750000000E+02
 1.467638547E+03	 6.742000122E+02
 1.468161006E+03	 6.755999756E+02
 1.468683410E+03	 6.752000122E+02
 1.469205760E+03	 6.804000244E+02
 1.469728054E+03	 6.760000000E+02
 1.470250294E+03	 6.724000244E+02
 1.470772478E+03	 6.755999756E+02
 1.471294608E+03	 6.750000000E+02
 1.471816683E+03	 6.722000122E+02
 1.472338703E+03	 6.747999878E+02
 1.472860668E+03	 6.725999756E+02
 1.473382578E+03	 6.735999756E+02
 1.473904434E+03	 6.744000244E+02
 1.474426234E+03	 6.740000000E+02
 1.474947980E+03	 6.745999756E+02
 1.475469671E+03	 6.740000000E+02
 1.475991307E+03	 6.737999878E+02
 1.476512888E+03	 6.734000244E+02
 1.477034414E+03	 6.762000122E+02
 1.477555885E+03	 6.744000244E+02
 1.478077302E+03	 6.745999756E+02
 1.478598663E+03	 6.732000122E+02
 1.479119970E+03	 6.714000244E+02
 1.479641222E+03	 6.724000244E+02
 1.480162419E+03	 6.740000000E+02
 1.480683561E+03	 6.764000244E+02
 1.481204649E+03	 6.735999756E+02
 1.481725682E+03	 6.755999756E+02
 1.482246659E+03	 6.757999878E+02
 1.482767582E+03	 6.732000122E+02
 1.483288451E+03	 6.777999878E+02
 1.483809264E+03	 6.787999878E+02
 1.484330022E+03	 6.775999756E+02
 1.484850726E+03	 6.750000000E+02
 1.485371375E+03	 6.742000122E+02
 1.485891969E+03	 6.750000000E+02
 1.486412509E+03	 6.724000244E+02
 1.486932993E+03	 6.764000244E+02
 1.487453423E+03	 6.722000122E+02
 1.487973798E+03	 6.742000122E+02
 1.488494118E+03	 6.754000244E+02
 1.489014384E+03	 6.737999878E+02
 1.489534594E+03	 6.734000244E+02
 1.490054750E+03	 6.770000000E+02
 1.490574851E+03	 6.752000122E+02
 1.491094897E+03	 6.715999756E+02
 1.491614889E+03	 6.770000000E+02
 1.492134826E+03	 6.742000122E+02
 1.492654708E+03	 6.734000244E+02
 1.493174535E+03	 6.765999756E+02
 1.493694308E+03	 6.735999756E+02
 1.494214026E+03	 6.724000244E+02
 1.494733689E+03	 6.730000000E+02
 1.495253297E+03	 6.745999756E+02
 1.495772850E+03	 6.747999878E+02
 1.496292349E+03	 6.704000244E+02
 1.496811793E+03	 6.740000000E+02
 1.497331183E+03	 6.740000000E+02
 1.497850517E+03	 6.742000122E+02
 1.498369797E+03	 6.722000122E+02
 1.498889023E+03	 6.844000244E+02
 1.499408193E+03	 6.750000000E+02
 1.499927309E+03	 6.735999756E+02
 1.500446370E+03	 6.732000122E+02
 1.500965376E+03	 6.700000000E+02
 1.501484328E+03	 6.737999878E+02
 1.502003225E+03	 6.727999878E+02
 1.502522067E+03	 6.710000000E+02
 1.503040855E+03	 6.737999878E+02
 1.503559588E+03	 6.724000244E+02
 1.504078266E+03	 6.787999878E+02
 1.504596890E+03	 6.714000244E+02
 1.505115458E+03	 6.777999878E+02
 1.505633973E+03	 6.692000122E+02
 1.506152432E+03	 6.737999878E+02
 1.506670837E+03	 6.730000000E+02
 1.507189187E+03	 6.715999756E+02
 1.507707483E+03	 6.727999878E+02
 1.508225723E+03	 6.712000122E+02
 1.508743910E+03	 6.750000000E+02
 1.509262041E+03	 6.740000000E+02
 1.509780118E+03	 6.800000000E+02
 1.510298140E+03	 6.745999756E+02
 1.510816108E+03	 6.745999756E+02
 1.511334021E+03	 6.784000244E+02
 1.511851879E+03	 6.735999756E+02
 1.512369683E+03	 6.712000122E+02
 1.512887432E+03	 6.740000000E+02
 1.513405126E+03	 6.734000244E+02
 1.513922766E+03	 6.747999878E+02
 1.514440351E+03	 6.734000244E+02
 1.514957882E+03	 6.710000000E+02
 1.515475358E+03	 6.712000122E+02
 1.515992779E+03	 6.682000122E+02
 1.516510146E+03	 6.714000244E+02
 1.517027458E+03	 6.754000244E+02
 1.517544716E+03	 6.722000122E+02
 1.518061919E+03	 6.710000000E+02
 1.518579067E+03	 6.725999756E+02
 1.519096161E+03	 6.744000244E+02
 1.519613200E+03	 6.750000000E+02
 1.520130185E+03	 6.710000000E+02
 1.520647115E+03	 6.707999878E+02
 1.521163990E+03	 6.742000122E+02
 1.521680811E+03	 6.720000000E+02
 1.522197577E+03	 6.720000000E+02
 1.522714289E+03	 6.717999878E+02
 1.523230946E+03	 6.715999756E+02
 1.523747549E+03	 6.720000000E+02
 1.524264097E+03	 6.730000000E+02
 1.524780590E+03	 6.730000000E+02
 1.525297029E+03	 6.730000000E+02
 1.525813414E+03	 6.757999878E+02
 1.526329744E+03	 6.760000000E+02
 1.526846019E+03	 6.770000000E+02
 1.527362240E+03	 6.737999878E+02
 1.527878406E+03	 6.747999878E+02
 1.528394518E+03	 6.730000000E+02
 1.528910575E+03	 6.755999756E+02
 1.529426577E+03	 6.715999756E+02
 1.529942526E+03	 6.725999756E+02
 1.530458419E+03	 6.707999878E+02
 1.530974258E+03	 6.735999756E+02
 1.531490043E+03	 6.712000122E+02
 1.532005773E+03	 6.715999756E+02
 1.532521449E+03	 6.722000122E+02
 1.533037070E+03	 6.717999878E+02
 1.533552636E+03	 6.730000000E+02
 1.534068148E+03	 6.755999756E+02
 1.534583606E+03	 6.712000122E+02
 1.535099009E+03	 6.750000000E+02
 1.535614358E+03	 6.727999878E+02
 1.536129652E+03	 6.712000122E+02
 1.536644891E+03	 6.722000122E+02
 1.537160077E+03	 6.734000244E+02
 1.537675207E+03	 6.757999878E+02
 1.538190284E+03	 6.695999756E+02
 1.538705305E+03	 6.754000244E+02
 1.539220273E+03	 6.720000000E+02
 1.539735186E+03	 6.715999756E+02
 1.540250044E+03	 6.734000244E+02
 1.540764848E+03	 6.744000244E+02
 1.541279597E+03	 6.730000000E+02
 1.541794292E+03	 6.734000244E+02
 1.542308933E+03	 6.722000122E+02
 1.542823519E+03	 6.750000000E+02
 1.543338051E+03	 6.715999756E+02
 1.543852528E+03	 6.750000000E+02
 1.544366951E+03	 6.724000244E+02
 1.544881320E+03	 6.742000122E+02
 1.545395634E+03	 6.785999756E+02
 1.545909893E+03	 6.747999878E+02
 1.546424099E+03	 6.730000000E+02
 1.546938249E+03	 6.730000000E+02
 1.547452346E+03	 6.732000122E+02
 1.547966388E+03	 6.722000122E+02
 1.548480375E+03	 6.744000244E+02
 1.548994308E+03	 6.735999756E+02
 1.549508187E+03	 6.727999878E+02
 1.550022012E+03	 6.720000000E+02
 1.550535782E+03	 6.707999878E+02
 1.551049497E+03	 6.740000000E+02
 1.551563158E+03	 6.730000000E+02
 1.552076765E+03	 6.760000000E+02
 1.552590318E+03	 6.692000122E+02
 1.553103816E+03	 6.715999756E+02
 1.553617260E+03	 6.715999756E+02
 1.554130649E+03	 6.717999878E+02
 1.554643984E+03	 6.720000000E+02
 1.555157265E+03	 6.707999878E+02
 1.555670491E+03	 6.737999878E+02
 1.556183663E+03	 6.740000000E+02
 1.556696780E+03	 6.787999878E+02
 1.557209844E+03	 6.774000244E+02
 1.557722853E+03	 6.720000000E+02
 1.558235807E+03	 6.765999756E+02
 1.558748707E+03	 6.707999878E+02
 1.559261553E+03	 6.702000122E+02
 1.559774345E+03	 6.744000244E+02
 1.560287082E+03	 6.717999878E+02
 1.560799765E+03	 6.715999756E+02
 1.561312394E+03	 6.754000244E+02
 1.561824968E+03	 6.745999756E+02
 1.562337488E+03	 6.722000122E+02
 1.562849954E+03	 6.732000122E+02
 1.563362365E+03	 6.720000000E+02
 1.563874722E+03	 6.725999756E+02
 1.564387025E+03	 6.735999756E+02
 1.564899273E+03	 6.715999756E+02
 1.565411467E+03	 6.725999756E+02
 1.565923607E+03	 6.734000244E+02
 1.566435693E+03	 6.755999756E+02
 1.566947724E+03	 6.737999878E+02
 1.567459701E+03	 6.784000244E+02
 1.567971624E+03	 6.735999756E+02
 1.568483493E+03	 6.732000122E+02
 1.568995307E+03	 6.734000244E+02
 1.569507067E+03	 6.755999756E+02
 1.570018772E+03	 6.725999756E+02
 1.570530424E+03	 6.710000000E+02
 1.571042021E+03	 6.730000000E+02
 1.571553564E+03	 6.707999878E+02
 1.572065053E+03	 6.717999878E+02
 1.572576487E+03	 6.762000122E+02
 1.573087867E+03	 6.717999878E+02
 1.573599193E+03	 6.712000122E+02
 1.574110465E+03	 6.675999756E+02
 1.574621682E+03	 6.775999756E+02
 1.575132846E+03	 6.737999878E+02
 1.575643955E+03	 6.724000244E+02
 1.576155009E+03	 6.714000244E+02
 1.576666010E+03	 6.712000122E+02
 1.577176956E+03	 6.724000244E+02
 1.577687849E+03	 6.724000244E+02
 1.578198687E+03	 6.750000000E+02
 1.578709470E+03	 6.734000244E+02
 1.579220200E+03	 6.737999878E+02
 1.579730875E+03	 6.720000000E+02
 1.580241496E+03	 6.705999756E+02
 1.580752063E+03	 6.750000000E+02
 1.581262576E+03	 6.752000122E+02
 1.581773035E+03	 6.732000122E+02
 1.582283439E+03	 6.714000244E+02
 1.582793789E+03	 6.724000244E+02
 1.583304085E+03	 6.734000244E+02
 1.583814327E+03	 6.704000244E+02
 1.584324515E+03	 6.730000000E+02
 1.584834649E+03	 6.737999878E+02
 1.585344728E+03	 6.720000000E+02
 1.585854753E+03	 6.750000000E+02
 1.586364724E+03	 6.720000000E+02
 1.586874641E+03	 6.724000244E+02
 1.587384504E+03	 6.754000244E+02
 1.587894313E+03	 6.754000244E+02
 1.588404067E+03	 6.770000000E+02
 1.588913768E+03	 6.730000000E+02
 1.589423414E+03	 6.704000244E+02
 1.589933006E+03	 6.727999878E+02
 1.590442544E+03	 6.710000000E+02
 1.590952028E+03	 6.715999756E+02
 1.591461457E+03	 6.697999878E+02
