1037.211545	702.0
1037.778412	703.7999878
1038.345221	706.2000122
1038.911973	706.0
1039.478666	702.7999878
1040.045302	698.7999878
1040.61188	700.7999878
1041.178401	699.4000244
1041.744863	702.0
1042.311268	695.5999756
1042.877615	699.7999878
1043.443905	700.2000122
1044.010136	696.4000244
1044.57631	695.5999756
1045.142426	695.7999878
1045.708484	696.4000244
1046.274485	693.0
1046.840427	699.2000122
1047.406312	696.4000244
1047.97214	694.5999756
1048.537909	696.7999878
1049.103621	698.0
1049.669275	695.7999878
1050.234871	694.7999878
1050.80041	693.2000122
1051.365891	697.0
1051.931314	692.0
1052.49668	692.7999878
1053.061988	693.4000244
1053.627238	692.2000122
1054.19243	696.7999878
1054.757565	695.0
1055.322642	690.7999878
1055.887661	693.0
1056.452623	692.4000244
1057.017527	691.5999756
1057.582374	696.0
1058.147162	692.7999878
1058.711893	692.2000122
1059.276567	689.4000244
1059.841183	690.2000122
1060.405741	692.0
1060.970241	689.0
1061.534684	686.2000122
1062.099069	688.0
1062.663397	686.7999878
1063.227667	688.4000244
1063.791879	689.0
1064.356034	685.4000244
1064.920131	695.4000244
1065.48417	688.0
1066.048152	688.0
1066.612076	685.0
1067.175943	686.0
1067.739752	687.5999756
1068.303504	687.5999756
1068.867197	689.0
1069.430834	690.5999756
1069.994413	689.0
1070.557934	688.5999756
1071.121397	688.2000122
1071.684803	688.2000122
1072.248152	684.2000122
1072.811443	686.0
1073.374676	688.5999756
1073.937852	684.2000122
1074.50097	687.5999756
1075.064031	689.5999756
1075.627034	684.7999878
1076.18998	686.4000244
1076.752868	688.2000122
1077.315698	686.7999878
1077.878471	689.0
1078.441187	686.4000244
1079.003845	688.4000244
1079.566446	686.7999878
1080.128989	687.4000244
1080.691474	688.2000122
1081.253902	683.4000244
1081.816273	683.5999756
1082.378586	685.0
1082.940841	687.0
1083.503039	684.4000244
1084.06518	684.4000244
1084.627263	684.7999878
1085.189289	685.2000122
1085.751257	684.2000122
1086.313168	686.7999878
1086.875021	687.0
1087.436817	683.4000244
1087.998555	686.5999756
1088.560236	688.5999756
1089.12186	686.4000244
1089.683426	684.4000244
1090.244934	686.5999756
1090.806386	685.5999756
1091.367779	682.5999756
1091.929116	691.0
1092.490395	685.2000122
1093.051616	686.5999756
1093.61278	684.2000122
1094.173887	687.4000244
1094.734936	686.0
1095.295928	685.0
1095.856863	684.7999878
1096.41774	684.0
1096.97856	685.4000244
1097.539322	683.7999878
1098.100027	684.7999878
1098.660675	685.4000244
1099.221265	685.7999878
1099.781798	682.0
1100.342274	682.4000244
1100.902692	682.5999756
1101.463053	683.5999756
1102.023356	683.5999756
1102.583602	684.2000122
1103.143791	686.7999878
1103.703922	682.7999878
1104.263996	680.4000244
1104.824013	683.5999756
1105.383973	680.5999756
1105.943875	684.0
1106.50372	682.4000244
1107.063507	685.0
1107.623237	683.2000122
1108.18291	682.2000122
1108.742526	684.5999756
1109.302084	685.7999878
1109.861585	679.5999756
1110.421029	684.2000122
1110.980416	685.5999756
1111.539745	681.5999756
1112.099017	686.7999878
1112.658231	685.7999878
1113.217389	682.0
1113.776489	684.0
1114.335531	680.5999756
1114.894517	681.5999756
1115.453445	684.2000122
1116.012316	686.2000122
1116.57113	685.2000122
1117.129887	684.0
1117.688586	686.2000122
1118.247228	685.2000122
1118.805813	682.4000244
1119.364341	680.7999878
1119.922811	682.4000244
1120.481224	681.2000122
1121.03958	686.7999878
1121.597879	682.5999756
1122.156121	684.2000122
1122.714305	682.5999756
1123.272432	684.0
1123.830502	679.4000244
1124.388515	684.2000122
1124.946471	683.5999756
1125.504369	680.4000244
1126.062211	687.4000244
1126.619995	681.4000244
1127.177722	685.4000244
1127.735391	683.7999878
1128.293004	686.5999756
1128.850559	683.0
1129.408058	681.7999878
1129.965499	682.4000244
1130.522883	682.2000122
1131.08021	682.5999756
1131.637479	686.7999878
1132.194692	680.4000244
1132.751847	681.4000244
1133.308946	683.7999878
1133.865987	681.2000122
1134.422971	682.7999878
1134.979898	681.4000244
1135.536768	683.5999756
1136.09358	680.7999878
1136.650336	683.7999878
1137.207035	684.5999756
1137.763676	682.5999756
1138.32026	684.0
1138.876788	679.4000244
1139.433258	681.7999878
1139.989671	686.5999756
1140.546027	683.2000122
1141.102326	681.7999878
1141.658568	682.0
1142.214753	684.2000122
1142.770881	680.4000244
1143.326951	682.7999878
1143.882965	681.5999756
1144.438922	683.5999756
1144.994821	682.2000122
1145.550664	681.5999756
1146.106449	681.4000244
1146.662178	681.2000122
1147.217849	680.0
1147.773464	680.7999878
1148.329021	681.7999878
1148.884521	683.4000244
1149.439965	683.2000122
1149.995351	685.0
1150.55068	685.5999756
1151.105953	683.4000244
1151.661168	681.5999756
1152.216326	682.0
1152.771428	682.7999878
1153.326472	683.5999756
1153.88146	680.4000244
1154.43639	682.4000244
1154.991263	682.5999756
1155.54608	683.4000244
1156.100839	684.7999878
1156.655542	682.2000122
1157.210188	684.0
1157.764776	682.4000244
1158.319308	681.7999878
1158.873783	683.7999878
1159.428201	685.4000244
1159.982561	681.5999756
1160.536865	681.5999756
1161.091112	682.5999756
1161.645302	678.2000122
1162.199436	683.2000122
1162.753512	682.4000244
1163.307531	679.4000244
1163.861494	680.0
1164.415399	683.2000122
1164.969248	682.4000244
1165.523039	684.0
1166.076774	682.7999878
1166.630452	678.5999756
1167.184073	680.0
1167.737637	677.7999878
1168.291144	678.2000122
1168.844595	680.0
1169.397988	680.0
1169.951325	681.2000122
1170.504605	681.5999756
1171.057828	679.5999756
1171.610994	680.2000122
1172.164103	681.4000244
1172.717155	678.5999756
1173.270151	680.5999756
1173.823089	680.4000244
1174.375971	680.0
1174.928796	679.2000122
1175.481564	678.7999878
1176.034276	679.4000244
1176.58693	680.2000122
1177.139528	678.7999878
1177.692069	679.5999756
1178.244553	678.7999878
1178.79698	682.0
1179.34935	681.2000122
1179.901664	677.2000122
1180.453921	679.7999878
1181.006121	678.2000122
1181.558264	684.2000122
1182.110351	679.4000244
1182.66238	682.2000122
1183.214353	676.4000244
1183.76627	682.2000122
1184.318129	681.7999878
1184.869932	680.2000122
1185.421677	679.0
1185.973367	678.2000122
1186.524999	679.5999756
1187.076574	683.7999878
1187.628093	680.7999878
1188.730961	680.5999756
1189.282309	679.7999878
1189.833601	683.0
1190.384837	680.7999878
1190.936015	677.4000244
1191.487137	680.7999878
1192.038202	680.7999878
1192.58921	679.4000244
1193.140162	681.0
1193.691057	680.4000244
1194.241895	680.0
1194.792676	686.0
1195.343401	676.5999756
1195.894069	679.4000244
1196.444681	679.7999878
1196.995235	679.2000122
1197.545733	683.4000244
1198.096175	681.0
1198.646559	681.2000122
1199.196887	678.0
1199.747159	679.0
1200.297374	684.4000244
1200.847532	681.0
1201.397633	682.0
1201.947678	682.7999878
1202.497666	680.2000122
1203.047598	680.4000244
1203.597472	680.7999878
1204.147291	679.7999878
1204.697052	681.2000122
1205.246757	682.2000122
1205.796406	684.2000122
1206.345997	681.0
1206.895532	684.7999878
1207.445011	680.7999878
1207.994433	679.2000122
1208.543798	679.7999878
1209.093107	679.2000122
1209.642359	679.2000122
1210.191554	684.0
1210.740693	682.7999878
1211.289776	680.0
1211.838801	683.0
1212.387771	681.5999756
1212.936683	679.7999878
1213.485539	681.2000122
1214.034339	680.5999756
1214.583082	680.4000244
1215.131768	680.0
1215.680398	684.4000244
1216.228971	681.0
1216.777488	680.2000122
1217.325948	679.5999756
1217.874352	682.4000244
1218.422699	678.0
1218.970989	684.0
1219.519223	682.2000122
1220.067401	680.7999878
1220.615522	682.4000244
1221.163586	682.4000244
1221.711594	679.5999756
1222.259546	681.2000122
1222.807441	680.4000244
1223.355279	680.5999756
1223.903061	683.2000122
1224.450787	681.4000244
1224.998455	684.4000244
1225.546068	680.4000244
1226.093624	680.2000122
1226.641123	684.5999756
1227.188567	680.7999878
1227.735953	680.4000244
1228.283283	681.7999878
1228.830557	684.5999756
1229.377774	679.7999878
1229.924935	683.0
1230.472039	682.2000122
1231.019087	679.2000122
1231.566078	681.4000244
1232.113013	679.7999878
1232.659892	682.2000122
1233.206714	679.5999756
1233.753479	684.5999756
1234.300188	680.5999756
1234.846841	681.7999878
1235.393438	680.4000244
1235.939978	683.4000244
1236.486461	680.2000122
1237.032888	681.2000122
1237.579259	683.0
1238.125573	681.0
1238.671831	681.4000244
1239.218033	684.7999878
1239.764178	680.5999756
1240.310267	682.4000244
1240.856299	680.5999756
1241.402275	680.0
1241.948194	678.7999878
1242.494058	680.4000244
1243.039865	680.4000244
1243.585615	685.2000122
1244.131309	680.2000122
1244.676947	680.2000122
1245.222528	679.7999878
1245.768053	682.4000244
1246.313522	682.5999756
1246.858935	682.0
1247.404291	681.2000122
1247.94959	684.2000122
1248.494834	685.2000122
1249.040021	682.4000244
1249.585152	681.2000122
1250.130226	684.2000122
1250.675244	686.2000122
1251.220206	682.5999756
1251.765111	681.5999756
1252.30996	679.5999756
1252.854753	681.0
1253.39949	683.7999878
1253.94417	686.5999756
1254.488794	681.7999878
1255.033362	693.2000122
1255.577873	683.2000122
1256.122328	681.4000244
1256.666727	681.5999756
1257.21107	682.0
1257.755356	679.5999756
1258.299586	681.7999878
1258.84376	684.5999756
1259.387877	687.2000122
1259.931939	686.5999756
1260.475944	683.7999878
1261.019892	683.7999878
1261.563785	682.4000244
1262.107621	682.0
1262.651401	684.0
1263.195125	688.7999878
1263.738793	687.5999756
1264.282404	696.4000244
1264.825959	721.2000122
1265.369458	745.7999878
1265.912901	725.0
1266.456287	699.2000122
1266.999618	687.5999756
1267.542892	682.4000244
1268.08611	683.2000122
1268.629271	682.0
1269.172377	680.4000244
1269.715426	681.4000244
1270.258419	684.2000122
1270.801356	680.2000122
1271.344237	680.7999878
1271.887061	678.0
1272.42983	682.2000122
1272.972542	681.0
1273.515198	681.2000122
1274.057798	683.4000244
1274.600342	680.0
1275.142829	682.7999878
1275.685261	681.7999878
1276.227636	679.5999756
1276.769955	680.5999756
1277.312218	683.5999756
1277.854425	680.2000122
1278.396576	681.5999756
1278.93867	680.5999756
1279.480709	679.7999878
1280.022691	683.2000122
1280.564618	680.4000244
1281.106488	683.2000122
1281.648302	684.2000122
1282.19006	687.5999756
1282.731761	692.5999756
1283.273407	694.4000244
1283.814997	704.0
1284.35653	748.7999878
1284.898008	905.7999878
1285.439429	1459.800049
1285.980794	1361.599976
1286.522104	840.0
1287.063357	729.0
1287.604554	703.7999878
1288.145695	694.4000244
1288.68678	692.2000122
1289.227808	684.7999878
1289.768781	685.2000122
1290.309698	685.4000244
1290.850559	681.7999878
1291.391363	682.0
1291.932112	683.0
1292.472804	681.5999756
1293.013441	684.2000122
1293.554022	681.5999756
1294.094546	681.7999878
1294.635014	681.0
1295.175427	681.2000122
1295.715783	680.0
1296.256084	677.5999756
1296.796328	680.4000244
1297.336516	678.5999756
1297.876649	679.7999878
1298.416725	683.4000244
1298.956745	678.5999756
1299.49671	681.7999878
1300.036618	677.2000122
1300.576471	679.4000244
1301.116267	681.0
1301.656007	681.7999878
1302.195692	680.0
1302.73532	679.0
1303.274893	680.0
1303.81441	681.0
1304.35387	678.4000244
1304.893275	678.4000244
1305.432623	680.5999756
1305.971916	679.0
1306.511153	679.5999756
1307.050334	679.0
1307.589459	679.7999878
1308.128528	677.5999756
1308.667541	677.5999756
1309.206498	680.4000244
1309.745399	679.7999878
1310.284244	680.0
1310.823033	681.0
1311.361767	679.4000244
1311.900444	676.7999878
1312.439066	679.5999756
1312.977632	681.7999878
1313.516141	682.2000122
1314.054595	677.5999756
1314.592993	681.0
1315.131335	678.7999878
1315.669622	677.7999878
1316.207852	679.4000244
1316.746026	678.7999878
1317.284145	679.5999756
1317.822208	677.7999878
1318.360215	678.7999878
1318.898166	680.7999878
1319.436061	678.4000244
1319.9739	683.2000122
1320.511683	678.5999756
1321.049411	679.5999756
1321.587082	679.5999756
1322.124698	682.0
1322.662258	679.4000244
1323.199762	680.0
1323.737211	681.2000122
1324.274603	679.4000244
1324.81194	681.2000122
1325.349221	679.4000244
1325.886446	678.0
1326.423615	675.4000244
1326.960728	678.7999878
1327.497786	679.7999878
1328.034788	680.2000122
1328.571734	678.0
1329.108624	678.5999756
1329.645458	680.5999756
1330.182237	680.0
1330.718959	676.7999878
1331.255626	678.0
1331.792238	678.4000244
1332.328793	681.0
1332.865293	678.0
1333.401737	679.0
1333.938125	679.0
1334.474457	680.7999878
1335.010734	679.0
1335.546954	677.4000244
1336.083119	678.5999756
1336.619229	678.5999756
1337.155282	678.0
1337.69128	678.7999878
1338.227222	679.2000122
1338.763109	678.7999878
1339.298939	682.5999756
1339.834714	679.2000122
1340.370433	677.7999878
1340.906097	679.4000244
1341.441704	680.7999878
1341.977256	679.7999878
1342.512752	678.7999878
1343.048193	676.0
1343.583578	677.4000244
1344.118907	677.4000244
1344.65418	680.2000122
1345.189398	676.2000122
1345.72456	679.4000244
1346.259667	679.7999878
1346.794717	676.5999756
1347.329712	678.2000122
1347.864652	676.7999878
1348.399535	677.7999878
1348.934363	677.0
1349.469135	679.2000122
1350.003852	678.0
1350.538513	680.5999756
1351.073118	677.2000122
1351.607668	676.4000244
1352.142162	679.7999878
1352.6766	676.0
1353.210983	679.2000122
1353.74531	682.4000244
1354.279582	682.4000244
1354.813797	681.2000122
1355.347957	683.2000122
1355.882062	676.2000122
1356.416111	677.7999878
1356.950104	678.2000122
1357.484042	682.2000122
1358.017924	681.4000244
1358.55175	677.5999756
1359.085521	678.5999756
1359.619236	680.4000244
1360.152896	678.7999878
1360.6865	676.2000122
1361.220048	679.4000244
1361.753541	681.4000244
1362.286978	677.4000244
1362.82036	679.4000244
1363.353686	681.2000122
1363.886957	679.5999756
1364.420172	680.4000244
1364.953331	680.5999756
1365.486435	681.2000122
1366.019483	681.0
1366.552476	685.2000122
1367.085413	683.4000244
1367.618294	679.2000122
1368.15112	679.7999878
1368.683891	682.7999878
1369.216606	681.5999756
1369.749265	683.5999756
1370.281869	695.4000244
1370.814417	697.2000122
1371.34691	681.5999756
1371.879347	681.7999878
1372.411729	680.7999878
1372.944055	679.0
1373.476326	679.5999756
1374.008541	680.7999878
1374.540701	682.2000122
1375.072805	679.4000244
1375.604854	681.5999756
1376.136847	678.5999756
1376.668784	681.2000122
1377.200667	680.0
1377.732493	682.4000244
1378.264265	677.0
1378.79598	679.5999756
1379.32764	680.5999756
1379.859245	681.7999878
1380.390795	679.4000244
1380.922288	678.4000244
1381.453727	679.4000244
1381.98511	683.4000244
1382.516437	682.7999878
1383.047709	679.2000122
1383.578926	684.0
1384.110087	683.4000244
1384.641192	684.5999756
1385.172242	688.4000244
1385.703237	692.2000122
1386.234177	699.4000244
1386.76506	705.4000244
1387.295889	723.2000122
1387.826662	800.2000122
1388.357379	1333.800049
1388.888042	2164.600098
1389.418648	1251.199951
1389.9492	779.7999878
1390.479696	715.2000122
1391.010136	702.2000122
1391.540521	694.7999878
1392.070851	690.7999878
1392.601126	687.0
1393.131344	686.5999756
1393.661508	686.2000122
1394.191616	679.7999878
1394.721669	681.7999878
1395.251666	683.4000244
1395.781609	680.0
1396.311495	684.4000244
1396.841327	682.2000122
1397.371102	677.5999756
1397.900823	677.7999878
1398.430488	678.7999878
1398.960098	680.7999878
1399.489653	679.2000122
1400.019152	679.2000122
1400.548596	679.2000122
1401.077984	679.4000244
1401.607317	678.5999756
1402.136595	682.2000122
1402.665818	682.0
1403.194985	678.2000122
1403.724097	682.4000244
1404.253153	681.4000244
1404.782154	679.4000244
1405.3111	679.5999756
1405.839991	680.7999878
1406.368826	680.2000122
1406.897606	681.5999756
1407.426331	682.4000244
1407.955	677.7999878
1408.483614	686.7999878
1409.012173	692.7999878
1409.540676	732.7999878
1410.069124	796.7999878
1410.597517	778.4000244
1411.125855	705.7999878
1411.654137	687.5999756
1412.182364	684.4000244
1412.710536	679.5999756
1413.238653	681.5999756
1413.766714	678.7999878
1414.29472	682.5999756
1414.822671	679.0
1415.350566	679.7999878
1415.878407	679.0
1416.406192	674.5999756
1416.933921	683.2000122
1417.461596	680.2000122
1417.989215	679.7999878
1418.516779	677.2000122
1419.044288	679.0
1419.571742	678.2000122
1420.09914	678.7999878
1420.626483	677.7999878
1421.153771	680.0
1421.681004	680.2000122
1422.208182	678.7999878
1422.735304	680.5999756
1423.262371	680.7999878
1423.789383	679.0
1424.31634	677.5999756
1424.843241	678.2000122
1425.370088	680.7999878
1425.896879	681.4000244
1426.423615	680.5999756
1426.950296	679.4000244
1427.476921	677.4000244
1428.003492	679.2000122
1428.530007	681.0
1429.056467	675.7999878
1429.582872	679.7999878
1430.109222	675.5999756
1430.635517	675.5999756
1431.161756	675.4000244
1431.687941	673.2000122
1432.21407	678.2000122
1432.740144	677.4000244
1433.266163	678.2000122
1433.792127	677.5999756
1434.318035	677.2000122
1434.843889	676.4000244
1435.369687	678.7999878
1435.895431	679.4000244
1436.421119	677.0
1436.946752	680.2000122
1437.47233	678.2000122
1437.997853	675.5999756
1438.52332	679.0
1439.048733	675.2000122
1439.57409	677.4000244
1440.099393	676.4000244
1440.62464	678.7999878
1441.149832	677.2000122
1441.67497	675.2000122
1442.200052	676.7999878
1442.725079	677.2000122
1443.250051	678.7999878
1443.774967	674.4000244
1444.299829	676.4000244
1444.824636	677.4000244
1445.349388	676.0
1445.874084	675.2000122
1446.398726	675.5999756
1446.923312	676.7999878
1447.447844	677.4000244
1447.97232	672.0
1448.496741	675.5999756
1449.021108	676.2000122
1449.545419	676.4000244
1450.069675	677.2000122
1450.593876	674.7999878
1451.118022	674.5999756
1451.642114	678.2000122
1452.16615	675.0
1452.690131	673.2000122
1453.214057	674.4000244
1453.737928	673.2000122
1454.261744	674.7999878
1454.785505	674.5999756
1455.309211	672.5999756
1455.832862	678.7999878
1456.356458	674.4000244
1456.879999	676.4000244
1457.403485	673.5999756
1457.926917	673.2000122
1458.450293	675.2000122
1458.973614	672.7999878
1459.49688	672.4000244
1460.020091	673.2000122
1460.543247	675.0
1461.066349	675.0
1461.589395	678.2000122
1462.112386	671.0
1462.635323	672.2000122
1463.158204	676.5999756
1463.681031	673.4000244
1464.203802	676.7999878
1464.726519	676.4000244
1465.249181	674.7999878
1465.771787	679.0
1466.294339	675.5999756
1466.816836	677.0
1467.339278	672.4000244
1467.861665	672.0
1468.383997	676.2000122
1468.906274	677.0
1469.428496	673.7999878
1469.950664	675.4000244
1470.472776	675.0
1470.994834	675.4000244
1471.516837	670.2000122
1472.038784	672.4000244
1472.560677	674.7999878
1473.082515	673.7999878
1473.604298	675.0
1474.126026	674.5999756
1474.6477	675.2000122
1475.169318	673.2000122
1475.690882	674.2000122
1476.212391	674.2000122
1476.733844	677.5999756
1477.255243	674.5999756
1477.776588	669.0
1478.297877	673.2000122
1478.819111	675.7999878
1479.340291	674.5999756
1479.861416	672.2000122
1480.382485	674.7999878
1480.9035	673.7999878
1481.424461	676.5999756
1481.945366	672.5999756
1482.466217	675.4000244
1482.987012	671.2000122
1483.507753	673.2000122
1484.028439	672.5999756
1484.54907	675.2000122
1485.069647	672.2000122
1485.590168	672.4000244
1486.110635	674.0
1486.631047	675.5999756
1487.151404	672.0
1487.671707	672.5999756
1488.191955	673.7999878
1488.712147	672.4000244
1489.232285	677.2000122
1489.752369	672.5999756
1490.272397	673.2000122
1490.792371	676.0
1491.31229	672.7999878
1491.832154	671.0
1492.351963	673.4000244
1492.871718	678.4000244
1493.391418	672.7999878
1493.911063	673.0
1494.430653	674.4000244
1494.950189	680.0
1495.46967	672.5999756
1495.989096	676.4000244
1496.508467	673.7999878
1497.027784	671.0
1497.547045	673.0
1498.066253	675.0
1498.585405	671.0
1499.104503	674.4000244
1499.623546	670.0
1500.142534	674.7999878
1500.661467	672.5999756
1501.180346	674.0
1501.69917	670.7999878
1502.21794	671.2000122
1502.736654	673.2000122
1503.255314	675.2000122
1503.77392	673.5999756
1504.29247	673.0
1504.810966	672.5999756
1505.329408	673.4000244
1505.847794	677.4000244
1506.366126	673.7999878
1506.884403	672.5999756
1507.402626	674.2000122
1507.920794	672.2000122
1508.438907	677.4000244
1508.956965	675.2000122
1509.474969	674.0
1509.992918	674.2000122
1510.510813	672.2000122
1511.028653	673.2000122
1511.546438	670.7999878
1512.064169	672.4000244
1512.581845	672.4000244
1513.099466	672.0
1513.617033	672.5999756
1514.134545	671.5999756
1514.652002	673.4000244
1515.169405	674.4000244
1515.686753	673.0
1516.204047	669.4000244
1516.721286	671.7999878
1517.23847	673.0
1517.7556	670.4000244
1518.272675	670.2000122
1518.789695	672.5999756
1519.306661	676.7999878
1519.823573	672.7999878
1520.340429	672.5999756
1520.857232	673.0
1521.373979	671.2000122
1521.890672	673.4000244
1522.407311	674.7999878
1522.923895	672.0
1523.440424	673.2000122
1523.956899	673.5999756
1524.473319	672.2000122
1524.989684	672.5999756
1525.505995	671.5999756
1526.022252	672.2000122
1526.538454	671.4000244
1527.054601	672.2000122
1527.570694	672.4000244
1528.086732	673.0
1528.602716	674.7999878
1529.118645	673.4000244
1529.63452	672.2000122
1530.15034	674.4000244
1530.666106	673.2000122
1531.181817	671.4000244
1531.697473	668.7999878
1532.213075	674.4000244
1532.728623	674.2000122
1533.244116	670.4000244
1533.759554	673.4000244
1534.274938	674.0
1534.790268	673.4000244
1535.305543	674.7999878
1535.820764	672.2000122
1536.33593	674.5999756
1536.851041	675.5999756
1537.366098	671.5999756
1537.881101	672.4000244
1538.396049	674.5999756
1538.910943	672.5999756
1539.425782	674.4000244
1539.940567	674.0
1540.455297	672.7999878
1540.969973	670.4000244
1541.484594	672.2000122
1541.999161	671.2000122
1542.513673	671.4000244
1543.028131	671.4000244
1543.542535	676.0
1544.056884	672.7999878
1544.571179	673.2000122
1545.085419	673.7999878
1545.599605	671.4000244
1546.113736	673.2000122
1546.627813	673.4000244
1547.141836	672.7999878
1547.655804	674.2000122
1548.169718	672.7999878
1548.683577	673.0
1549.197382	673.2000122
1549.711132	669.5999756
1550.224829	674.0
1550.73847	676.2000122
1551.252058	671.4000244
1551.76559	673.4000244
1552.279069	671.7999878
1552.792493	672.5999756
1553.305863	675.4000244
1553.819178	668.0
1554.332439	675.5999756
1554.845646	671.2000122
1555.358798	673.5999756
1555.871896	676.2000122
1556.38494	674.2000122
1556.897929	669.4000244
1557.410864	672.5999756
1557.923744	673.7999878
1558.436571	674.0
1558.949342	676.5999756
1559.46206	675.0
1559.974723	673.5999756
1560.487332	672.7999878
1560.999886	672.5999756
1561.512386	673.5999756
1562.024832	674.0
1562.537224	672.7999878
1563.049561	670.0
1563.561844	671.4000244
1564.074072	675.0
1564.586247	669.0
1565.098367	674.5999756
1565.610432	672.4000244
1566.122444	671.7999878
1566.634401	671.5999756
1567.146304	671.4000244
1567.658152	669.7999878
1568.169946	671.4000244
1568.681686	675.2000122
1569.193372	672.4000244
1569.705003	671.4000244
1570.21658	673.0
1570.728103	672.4000244
1571.239572	672.2000122
1571.750986	669.7999878
1572.262346	673.7999878
1572.773652	672.0
1573.284904	672.7999878
1573.796101	670.5999756
1574.307244	670.5999756
1574.818333	674.5999756
1575.329367	673.2000122
1575.840348	674.4000244
1576.351274	672.0
1576.862146	669.2000122
1577.372964	672.5999756
1577.883727	671.5999756
1578.394436	672.0
1578.905091	672.5999756
1579.415692	673.7999878
1579.926239	672.7999878
1580.436731	670.7999878
1580.947169	673.0
1581.457553	672.7999878
1581.967883	673.0
1582.478159	674.0
1582.98838	672.2000122
1583.498548	672.0
1584.008661	670.4000244
1584.51872	672.0
1585.028725	674.4000244
1585.538675	666.5999756
1586.048572	670.0
1586.558414	670.4000244
1587.068202	672.4000244
1587.577936	669.5999756
