1037.211545	721.5999756
1037.778412	724.0
1038.345221	725.5999756
1038.911973	721.4000244
1039.478666	717.2000122
1040.045302	718.5999756
1040.61188	716.4000244
1041.178401	719.7999878
1041.744863	720.2000122
1042.311268	717.0
1042.877615	717.7999878
1043.443905	722.2000122
1044.010136	717.4000244
1044.57631	719.4000244
1045.142426	714.4000244
1045.708484	716.2000122
1046.274485	719.7999878
1046.840427	717.0
1047.406312	716.2000122
1047.97214	716.0
1048.537909	713.4000244
1049.103621	720.0
1049.669275	716.4000244
1050.234871	718.7999878
1050.80041	714.4000244
1051.365891	712.5999756
1051.931314	714.4000244
1052.49668	714.0
1053.061988	713.5999756
1053.627238	716.2000122
1054.19243	717.2000122
1054.757565	711.5999756
1055.322642	712.4000244
1055.887661	711.0
1056.452623	712.0
1057.017527	709.2000122
1057.582374	711.7999878
1058.147162	711.5999756
1058.711893	710.2000122
1059.276567	709.7999878
1059.841183	716.2000122
1060.405741	715.2000122
1060.970241	716.7999878
1061.534684	711.5999756
1062.099069	715.0
1062.663397	711.2000122
1063.227667	710.5999756
1063.791879	712.2000122
1064.356034	708.0
1064.920131	717.5999756
1065.48417	712.0
1066.048152	714.5999756
1066.612076	709.5999756
1067.175943	713.7999878
1067.739752	710.0
1068.303504	713.7999878
1068.867197	709.7999878
1069.430834	712.7999878
1069.994413	710.7999878
1070.557934	708.2000122
1071.121397	705.7999878
1071.684803	713.4000244
1072.248152	718.0
1072.811443	719.4000244
1073.374676	708.2000122
1073.937852	706.4000244
1074.50097	713.5999756
1075.064031	706.2000122
1075.627034	713.5999756
1076.18998	715.7999878
1076.752868	711.0
1077.315698	715.2000122
1077.878471	714.0
1078.441187	709.5999756
1079.003845	711.5999756
1079.566446	711.7999878
1080.128989	712.5999756
1080.691474	715.4000244
1081.253902	710.2000122
1081.816273	715.4000244
1082.378586	709.4000244
1082.940841	715.2000122
1083.503039	714.5999756
1084.06518	711.0
1084.627263	711.5999756
1085.189289	710.2000122
1085.751257	714.7999878
1086.313168	712.5999756
1086.875021	712.0
1087.436817	718.4000244
1087.998555	711.4000244
1088.560236	713.5999756
1089.12186	711.5999756
1089.683426	713.2000122
1090.244934	715.0
1090.806386	712.5999756
1091.367779	715.0
1091.929116	713.4000244
1092.490395	708.7999878
1093.051616	716.0
1093.61278	715.4000244
1094.173887	712.0
1094.734936	709.5999756
1095.295928	709.2000122
1095.856863	713.7999878
1096.41774	711.2000122
1096.97856	709.2000122
1097.539322	711.5999756
1098.100027	711.0
1098.660675	713.2000122
1099.221265	720.2000122
1099.781798	708.4000244
1100.342274	710.5999756
1100.902692	713.7999878
1101.463053	713.5999756
1102.023356	713.7999878
1102.583602	712.0
1103.143791	710.4000244
1103.703922	715.7999878
1104.263996	714.0
1104.824013	717.0
1105.383973	715.2000122
1105.943875	720.5999756
1106.50372	715.2000122
1107.063507	716.4000244
1107.623237	720.4000244
1108.18291	717.0
1108.742526	715.2000122
1109.302084	719.0
1109.861585	720.7999878
1110.421029	719.5999756
1110.980416	720.4000244
1111.539745	721.2000122
1112.099017	725.2000122
1112.658231	718.0
1113.217389	720.2000122
1113.776489	721.4000244
1114.335531	718.5999756
1114.894517	724.4000244
1115.453445	720.5999756
1116.012316	715.0
1116.57113	715.2000122
1117.129887	717.4000244
1117.688586	714.4000244
1118.247228	720.5999756
1118.805813	717.5999756
1119.364341	716.2000122
1119.922811	716.2000122
1120.481224	719.7999878
1121.03958	720.2000122
1121.597879	717.7999878
1122.156121	715.7999878
1122.714305	717.4000244
1123.272432	714.7999878
1123.830502	714.7999878
1124.388515	715.5999756
1124.946471	715.5999756
1125.504369	713.2000122
1126.062211	717.0
1126.619995	716.0
1127.177722	712.5999756
1127.735391	714.5999756
1128.293004	718.4000244
1128.850559	713.0
1129.408058	716.2000122
1129.965499	715.0
1130.522883	713.2000122
1131.08021	712.4000244
1131.637479	716.5999756
1132.194692	710.5999756
1132.751847	717.0
1133.308946	715.2000122
1133.865987	713.5999756
1134.422971	712.2000122
1134.979898	711.5999756
1135.536768	713.2000122
1136.09358	711.4000244
1136.650336	715.5999756
1137.207035	710.0
1137.763676	714.0
1138.32026	714.2000122
1138.876788	712.4000244
1139.433258	714.5999756
1139.989671	716.0
1140.546027	713.2000122
1141.102326	713.5999756
1141.658568	715.2000122
1142.214753	711.5999756
1142.770881	715.2000122
1143.326951	714.2000122
1143.882965	713.7999878
1144.438922	712.0
1144.994821	719.4000244
1145.550664	716.5999756
1146.106449	713.4000244
1146.662178	714.2000122
1147.217849	714.5999756
1147.773464	714.7999878
1148.329021	713.2000122
1148.884521	716.7999878
1149.439965	717.0
1149.995351	717.2000122
1150.55068	719.4000244
1151.105953	718.7999878
1151.661168	715.0
1152.216326	716.2000122
1152.771428	716.7999878
1153.326472	711.5999756
1153.88146	712.5999756
1154.43639	713.5999756
1154.991263	716.0
1155.54608	714.7999878
1156.100839	716.0
1156.655542	716.7999878
1157.210188	715.2000122
1157.764776	716.5999756
1158.319308	718.7999878
1158.873783	717.2000122
1159.428201	717.7999878
1159.982561	719.4000244
1160.536865	714.5999756
1161.091112	715.4000244
1161.645302	715.2000122
1162.199436	716.5999756
1162.753512	713.0
1163.307531	714.4000244
1163.861494	714.5999756
1164.415399	716.0
1164.969248	717.0
1165.523039	716.4000244
1166.076774	721.2000122
1166.630452	716.2000122
1167.184073	720.7999878
1167.737637	717.0
1168.291144	719.5999756
1168.844595	712.0
1169.397988	720.7999878
1169.951325	716.0
1170.504605	716.0
1171.057828	719.0
1171.610994	717.7999878
1172.164103	719.7999878
1172.717155	716.5999756
1173.270151	715.2000122
1173.823089	718.2000122
1174.375971	712.5999756
1174.928796	717.5999756
1175.481564	715.4000244
1176.034276	720.0
1176.58693	716.0
1177.139528	719.7999878
1177.692069	722.0
1178.244553	717.4000244
1178.79698	719.2000122
1179.34935	721.7999878
1179.901664	722.2000122
1180.453921	720.7999878
1181.006121	718.7999878
1181.558264	722.0
1182.110351	720.2000122
1182.66238	721.2000122
1183.214353	721.2000122
1183.76627	719.5999756
1184.318129	721.4000244
1184.869932	725.0
1185.421677	719.5999756
1185.973367	723.4000244
1186.524999	723.7999878
1187.076574	723.7999878
1187.628093	723.7999878
1188.730961	719.0
1189.282309	726.0
1189.833601	724.4000244
1190.384837	718.5999756
1190.936015	722.0
1191.487137	721.5999756
1192.038202	715.2000122
1192.58921	724.5999756
1193.140162	717.5999756
1193.691057	714.7999878
1194.241895	715.4000244
1194.792676	713.2000122
1195.343401	716.7999878
1195.894069	719.2000122
1196.444681	716.0
1196.995235	717.5999756
1197.545733	719.4000244
1198.096175	714.5999756
1198.646559	720.4000244
1199.196887	720.0
1199.747159	715.7999878
1200.297374	719.2000122
1200.847532	715.5999756
1201.397633	720.0
1201.947678	716.4000244
1202.497666	721.2000122
1203.047598	712.7999878
1203.597472	712.2000122
1204.147291	718.0
1204.697052	718.2000122
1205.246757	721.4000244
1205.796406	717.7999878
1206.345997	718.2000122
1206.895532	718.4000244
1207.445011	721.2000122
1207.994433	722.0
1208.543798	722.7999878
1209.093107	718.0
1209.642359	721.0
1210.191554	720.2000122
1210.740693	716.5999756
1211.289776	722.2000122
1211.838801	722.4000244
1212.387771	722.4000244
1212.936683	717.5999756
1213.485539	723.4000244
1214.034339	722.4000244
1214.583082	722.0
1215.131768	721.2000122
1215.680398	719.5999756
1216.228971	723.2000122
1216.777488	718.5999756
1217.325948	722.2000122
1217.874352	726.2000122
1218.422699	720.0
1218.970989	719.7999878
1219.519223	720.0
1220.067401	721.5999756
1220.615522	723.5999756
1221.163586	725.2000122
1221.711594	724.5999756
1222.259546	724.7999878
1222.807441	726.2000122
1223.355279	726.0
1223.903061	718.5999756
1224.450787	725.5999756
1224.998455	726.4000244
1225.546068	725.0
1226.093624	724.4000244
1226.641123	733.5999756
1227.188567	720.4000244
1227.735953	726.5999756
1228.283283	723.2000122
1228.830557	729.0
1229.377774	727.5999756
1229.924935	723.5999756
1230.472039	727.7999878
1231.019087	726.2000122
1231.566078	720.7999878
1232.113013	725.5999756
1232.659892	727.0
1233.206714	720.2000122
1233.753479	724.7999878
1234.300188	721.7999878
1234.846841	722.0
1235.393438	722.4000244
1235.939978	723.7999878
1236.486461	724.5999756
1237.032888	720.4000244
1237.579259	725.0
1238.125573	727.4000244
1238.671831	722.2000122
1239.218033	721.4000244
1239.764178	722.7999878
1240.310267	722.5999756
1240.856299	725.4000244
1241.402275	722.4000244
1241.948194	722.0
1242.494058	721.4000244
1243.039865	719.2000122
1243.585615	724.2000122
1244.131309	724.5999756
1244.676947	725.4000244
1245.222528	729.7999878
1245.768053	724.5999756
1246.313522	723.2000122
1246.858935	722.4000244
1247.404291	724.2000122
1247.94959	720.7999878
1248.494834	722.4000244
1249.040021	719.0
1249.585152	721.7999878
1250.130226	724.7999878
1250.675244	723.0
1251.220206	722.0
1251.765111	726.7999878
1252.30996	726.7999878
1252.854753	722.0
1253.39949	724.4000244
1253.94417	724.7999878
1254.488794	719.2000122
1255.033362	730.4000244
1255.577873	725.4000244
1256.122328	726.4000244
1256.666727	722.7999878
1257.21107	721.5999756
1257.755356	722.5999756
1258.299586	723.4000244
1258.84376	726.5999756
1259.387877	729.5999756
1259.931939	723.0
1260.475944	724.2000122
1261.019892	724.5999756
1261.563785	723.2000122
1262.107621	723.5999756
1262.651401	726.4000244
1263.195125	726.5999756
1263.738793	730.0
1264.282404	738.2000122
1264.825959	756.0
1265.369458	761.5999756
1265.912901	743.7999878
1266.456287	737.4000244
1266.999618	726.0
1267.542892	721.0
1268.08611	719.5999756
1268.629271	722.5999756
1269.172377	723.7999878
1269.715426	725.5999756
1270.258419	726.2000122
1270.801356	718.4000244
1271.344237	721.0
1271.887061	723.4000244
1272.42983	722.5999756
1272.972542	718.5999756
1273.515198	721.2000122
1274.057798	720.7999878
1274.600342	720.4000244
1275.142829	721.7999878
1275.685261	722.2000122
1276.227636	727.0
1276.769955	723.2000122
1277.312218	722.2000122
1277.854425	719.4000244
1278.396576	727.0
1278.93867	718.2000122
1279.480709	720.5999756
1280.022691	722.4000244
1280.564618	726.2000122
1281.106488	726.2000122
1281.648302	726.0
1282.19006	730.2000122
1282.731761	731.5999756
1283.273407	737.4000244
1283.814997	760.2000122
1284.35653	816.0
1284.898008	1035.0
1285.439429	1383.0
1285.980794	1090.400024
1286.522104	813.5999756
1287.063357	756.0
1287.604554	742.4000244
1288.145695	734.4000244
1288.68678	734.4000244
1289.227808	729.5999756
1289.768781	726.7999878
1290.309698	726.7999878
1290.850559	727.4000244
1291.391363	727.2000122
1291.932112	729.7999878
1292.472804	730.2000122
1293.013441	724.0
1293.554022	722.2000122
1294.094546	722.7999878
1294.635014	725.0
1295.175427	726.7999878
1295.715783	722.2000122
1296.256084	723.2000122
1296.796328	719.2000122
1297.336516	722.5999756
1297.876649	723.5999756
1298.416725	724.7999878
1298.956745	723.0
1299.49671	722.0
1300.036618	725.2000122
1300.576471	720.4000244
1301.116267	722.7999878
1301.656007	720.4000244
1302.195692	723.0
1302.73532	721.4000244
1303.274893	718.4000244
1303.81441	720.0
1304.35387	722.2000122
1304.893275	724.4000244
1305.432623	723.5999756
1305.971916	721.4000244
1306.511153	720.7999878
1307.050334	715.2000122
1307.589459	719.5999756
1308.128528	724.0
1308.667541	723.7999878
1309.206498	722.7999878
1309.745399	717.4000244
1310.284244	717.5999756
1310.823033	721.5999756
1311.361767	720.5999756
1311.900444	722.4000244
1312.439066	721.2000122
1312.977632	719.0
1313.516141	716.5999756
1314.054595	725.4000244
1314.592993	718.0
1315.131335	716.0
1315.669622	717.5999756
1316.207852	714.5999756
1316.746026	719.4000244
1317.284145	717.2000122
1317.822208	713.2000122
1318.360215	714.5999756
1318.898166	722.2000122
1319.436061	716.5999756
1319.9739	718.2000122
1320.511683	717.4000244
1321.049411	720.5999756
1321.587082	715.4000244
1322.124698	721.4000244
1322.662258	715.4000244
1323.199762	717.5999756
1323.737211	716.0
1324.274603	717.5999756
1324.81194	717.0
1325.349221	715.2000122
1325.886446	714.7999878
1326.423615	714.4000244
1326.960728	713.0
1327.497786	712.5999756
1328.034788	719.5999756
1328.571734	717.5999756
1329.108624	720.0
1329.645458	719.4000244
1330.182237	717.7999878
1330.718959	720.5999756
1331.255626	714.0
1331.792238	716.4000244
1332.328793	717.7999878
1332.865293	715.4000244
1333.401737	715.0
1333.938125	717.4000244
1334.474457	715.2000122
1335.010734	716.2000122
1335.546954	718.4000244
1336.083119	713.7999878
1336.619229	721.0
1337.155282	720.2000122
1337.69128	719.5999756
1338.227222	717.4000244
1338.763109	716.0
1339.298939	718.2000122
1339.834714	718.4000244
1340.370433	715.7999878
1340.906097	716.0
1341.441704	717.0
1341.977256	714.2000122
1342.512752	715.0
1343.048193	718.4000244
1343.583578	713.4000244
1344.118907	714.4000244
1344.65418	717.4000244
1345.189398	719.2000122
1345.72456	721.5999756
1346.259667	715.7999878
1346.794717	715.4000244
1347.329712	714.5999756
1347.864652	716.0
1348.399535	722.4000244
1348.934363	716.0
1349.469135	715.4000244
1350.003852	718.0
1350.538513	717.5999756
1351.073118	717.5999756
1351.607668	717.7999878
1352.142162	715.4000244
1352.6766	716.0
1353.210983	717.5999756
1353.74531	715.5999756
1354.279582	717.0
1354.813797	716.4000244
1355.347957	718.4000244
1355.882062	718.0
1356.416111	718.2000122
1356.950104	720.7999878
1357.484042	716.5999756
1358.017924	714.2000122
1358.55175	718.7999878
1359.085521	709.4000244
1359.619236	721.2000122
1360.152896	714.7999878
1360.6865	718.0
1361.220048	717.4000244
1361.753541	720.5999756
1362.286978	715.5999756
1362.82036	713.5999756
1363.353686	716.2000122
1363.886957	714.5999756
1364.420172	715.5999756
1364.953331	717.7999878
1365.486435	719.7999878
1366.019483	714.2000122
1366.552476	717.5999756
1367.085413	712.0
1367.618294	715.7999878
1368.15112	718.4000244
1368.683891	713.4000244
1369.216606	718.7999878
1369.749265	716.4000244
1370.281869	731.2000122
1370.814417	729.4000244
1371.34691	717.0
1371.879347	711.0
1372.411729	718.2000122
1372.944055	718.7999878
1373.476326	718.5999756
1374.008541	716.2000122
1374.540701	715.2000122
1375.072805	718.0
1375.604854	713.7999878
1376.136847	716.2000122
1376.668784	716.2000122
1377.200667	718.0
1377.732493	716.5999756
1378.264265	716.7999878
1378.79598	718.4000244
1379.32764	714.0
1379.859245	717.7999878
1380.390795	720.7999878
1380.922288	716.5999756
1381.453727	717.0
1381.98511	719.7999878
1382.516437	720.7999878
1383.047709	716.5999756
1383.578926	719.2000122
1384.110087	720.7999878
1384.641192	719.7999878
1385.172242	723.5999756
1385.703237	731.0
1386.234177	735.2000122
1386.76506	747.2000122
1387.295889	769.4000244
1387.826662	879.4000244
1388.357379	1401.199951
1388.888042	1762.0
1389.418648	1058.599976
1389.9492	793.0
1390.479696	745.5999756
1391.010136	730.7999878
1391.540521	730.2000122
1392.070851	725.5999756
1392.601126	720.7999878
1393.131344	720.4000244
1393.661508	723.5999756
1394.191616	725.2000122
1394.721669	719.4000244
1395.251666	720.2000122
1395.781609	713.7999878
1396.311495	720.2000122
1396.841327	715.2000122
1397.371102	717.4000244
1397.900823	713.2000122
1398.430488	716.2000122
1398.960098	711.0
1399.489653	715.5999756
1400.019152	719.4000244
1400.548596	716.5999756
1401.077984	712.2000122
1401.607317	715.2000122
1402.136595	710.5999756
1402.665818	715.7999878
1403.194985	717.4000244
1403.724097	713.0
1404.253153	714.7999878
1404.782154	719.2000122
1405.3111	715.5999756
1405.839991	714.5999756
1406.368826	716.4000244
1406.897606	719.0
1407.426331	720.4000244
1407.955	721.2000122
1408.483614	724.5999756
1409.012173	731.7999878
1409.540676	765.2000122
1410.069124	790.7999878
1410.597517	777.2000122
1411.125855	736.4000244
1411.654137	724.4000244
1412.182364	716.2000122
1412.710536	716.4000244
1413.238653	712.4000244
1413.766714	719.2000122
1414.29472	718.0
1414.822671	712.0
1415.350566	717.0
1415.878407	711.5999756
1416.406192	715.0
1416.933921	711.2000122
1417.461596	715.5999756
1417.989215	712.2000122
1418.516779	710.0
1419.044288	715.0
1419.571742	711.7999878
1420.09914	709.7999878
1420.626483	713.2000122
1421.153771	709.4000244
1421.681004	720.0
1422.208182	715.7999878
1422.735304	710.5999756
1423.262371	713.2000122
1423.789383	715.2000122
1424.31634	718.0
1424.843241	716.4000244
1425.370088	713.4000244
1425.896879	709.4000244
1426.423615	717.7999878
1426.950296	713.5999756
1427.476921	715.2000122
1428.003492	714.4000244
1428.530007	717.5999756
1429.056467	714.7999878
1429.582872	716.4000244
1430.109222	716.4000244
1430.635517	716.5999756
1431.161756	713.7999878
1431.687941	713.5999756
1432.21407	708.2000122
1432.740144	714.0
1433.266163	708.0
1433.792127	710.4000244
1434.318035	712.7999878
1434.843889	713.5999756
1435.369687	716.5999756
1435.895431	712.2000122
1436.421119	713.0
1436.946752	714.4000244
1437.47233	712.0
1437.997853	710.4000244
1438.52332	713.5999756
1439.048733	718.4000244
1439.57409	714.2000122
1440.099393	715.4000244
1440.62464	715.2000122
1441.149832	717.2000122
1441.67497	710.0
1442.200052	714.4000244
1442.725079	718.2000122
1443.250051	715.4000244
1443.774967	712.7999878
1444.299829	710.0
1444.824636	709.0
1445.349388	714.0
1445.874084	717.7999878
1446.398726	711.7999878
1446.923312	718.7999878
1447.447844	717.2000122
1447.97232	714.0
1448.496741	714.5999756
1449.021108	717.7999878
1449.545419	709.4000244
1450.069675	715.0
1450.593876	713.0
1451.118022	714.2000122
1451.642114	715.0
1452.16615	712.4000244
1452.690131	719.7999878
1453.214057	711.7999878
1453.737928	714.5999756
1454.261744	709.4000244
1454.785505	713.5999756
1455.309211	711.2000122
1455.832862	711.5999756
1456.356458	711.2000122
1456.879999	718.4000244
1457.403485	712.0
1457.926917	713.0
1458.450293	716.7999878
1458.973614	714.4000244
1459.49688	710.4000244
1460.020091	713.5999756
1460.543247	716.4000244
1461.066349	713.4000244
1461.589395	708.7999878
1462.112386	715.5999756
1462.635323	714.0
1463.158204	716.0
1463.681031	711.5999756
1464.203802	713.0
1464.726519	714.0
1465.249181	713.7999878
1465.771787	711.7999878
1466.294339	713.0
1466.816836	713.5999756
1467.339278	713.5999756
1467.861665	710.5999756
1468.383997	711.0
1468.906274	712.4000244
1469.428496	710.7999878
1469.950664	709.4000244
1470.472776	712.2000122
1470.994834	716.4000244
1471.516837	712.0
1472.038784	708.5999756
1472.560677	710.2000122
1473.082515	711.5999756
1473.604298	718.7999878
1474.126026	716.7999878
1474.6477	707.5999756
1475.169318	714.0
1475.690882	716.5999756
1476.212391	712.5999756
1476.733844	713.0
1477.255243	710.2000122
1477.776588	707.7999878
1478.297877	709.7999878
1478.819111	712.2000122
1479.340291	709.7999878
1479.861416	707.2000122
1480.382485	710.2000122
1480.9035	708.2000122
1481.424461	706.0
1481.945366	701.7999878
1482.466217	708.4000244
1482.987012	707.0
1483.507753	710.0
1484.028439	709.2000122
1484.54907	709.0
1485.069647	710.5999756
1485.590168	709.4000244
1486.110635	711.4000244
1486.631047	707.7999878
1487.151404	710.2000122
1487.671707	709.4000244
1488.191955	711.0
1488.712147	708.2000122
1489.232285	707.7999878
1489.752369	705.0
1490.272397	706.0
1490.792371	710.0
1491.31229	705.7999878
1491.832154	709.5999756
1492.351963	708.4000244
1492.871718	705.4000244
1493.391418	704.0
1493.911063	708.5999756
1494.430653	704.4000244
1494.950189	715.2000122
1495.46967	710.2000122
1495.989096	707.7999878
1496.508467	708.2000122
1497.027784	708.4000244
1497.547045	709.7999878
1498.066253	706.5999756
1498.585405	704.2000122
1499.104503	709.4000244
1499.623546	711.4000244
1500.142534	703.4000244
1500.661467	712.2000122
1501.180346	706.0
1501.69917	705.0
1502.21794	706.0
1502.736654	705.7999878
1503.255314	705.0
1503.77392	703.5999756
1504.29247	710.0
1504.810966	706.0
1505.329408	707.0
1505.847794	713.0
1506.366126	708.4000244
1506.884403	707.7999878
1507.402626	708.5999756
1507.920794	705.7999878
1508.438907	706.2000122
1508.956965	708.4000244
1510.510813	710.4000244
1511.028653	708.0
1511.546438	705.5999756
1512.064169	706.0
1512.581845	709.2000122
1513.099466	706.4000244
1513.617033	711.0
1514.134545	706.4000244
1514.652002	705.7999878
1515.169405	708.0
1515.686753	707.2000122
1516.204047	708.7999878
1516.721286	706.5999756
1517.23847	701.4000244
1517.7556	705.4000244
1518.272675	707.4000244
1518.789695	707.4000244
1519.306661	706.7999878
1519.823573	706.2000122
1520.340429	704.4000244
1520.857232	703.7999878
1521.373979	705.7999878
1521.890672	705.5999756
1522.407311	703.5999756
1522.923895	704.4000244
1523.440424	705.2000122
1523.956899	701.7999878
1524.473319	708.2000122
1524.989684	702.2000122
1525.505995	706.0
1526.022252	704.7999878
1526.538454	706.5999756
1527.054601	706.4000244
1527.570694	705.4000244
1528.086732	707.5999756
1528.602716	704.2000122
1529.118645	708.7999878
1529.63452	708.0
1530.15034	705.0
1530.666106	705.4000244
1531.181817	702.4000244
1531.697473	706.5999756
1532.213075	704.5999756
1532.728623	704.2000122
1533.244116	701.7999878
1533.759554	702.4000244
1534.274938	708.0
1534.790268	705.7999878
1535.305543	710.2000122
1535.820764	705.5999756
1536.33593	708.7999878
1536.851041	707.7999878
1537.366098	707.0
1537.881101	708.0
1538.396049	705.7999878
1538.910943	706.4000244
1539.425782	707.0
1539.940567	707.0
1540.455297	707.0
1540.969973	703.7999878
1541.484594	704.7999878
1541.999161	703.2000122
1542.513673	706.7999878
1543.028131	706.4000244
1543.542535	708.7999878
1544.056884	706.4000244
1544.571179	704.4000244
1545.085419	707.7999878
1545.599605	705.4000244
1546.113736	706.2000122
1546.627813	709.2000122
1547.141836	708.4000244
1547.655804	706.4000244
1548.169718	708.4000244
1548.683577	708.2000122
1549.197382	703.5999756
1549.711132	707.7999878
1550.224829	704.7999878
1550.73847	706.2000122
1551.252058	702.5999756
1551.76559	704.2000122
1552.279069	709.2000122
1552.792493	704.7999878
1553.305863	709.5999756
1553.819178	702.2000122
1554.332439	705.4000244
1554.845646	706.0
1555.358798	706.2000122
1555.871896	703.5999756
1556.38494	707.7999878
1556.897929	708.2000122
1557.410864	707.2000122
1557.923744	707.2000122
1558.436571	710.4000244
1558.949342	710.0
1559.46206	706.0
1559.974723	704.2000122
1560.487332	710.0
1560.999886	707.0
1561.512386	706.5999756
1562.024832	704.7999878
1562.537224	708.2000122
1563.049561	704.0
1563.561844	704.4000244
1564.074072	703.2000122
1564.586247	705.0
1565.098367	705.4000244
1565.610432	702.7999878
1566.122444	712.2000122
1566.634401	703.4000244
1567.146304	710.4000244
1567.658152	709.0
1568.169946	707.0
1568.681686	702.5999756
1569.193372	701.5999756
1569.705003	703.2000122
1570.21658	706.4000244
1570.728103	703.7999878
1571.239572	704.0
1571.750986	704.5999756
1572.262346	708.2000122
1572.773652	703.7999878
1573.284904	704.0
1573.796101	701.7999878
1574.307244	701.5999756
1574.818333	704.2000122
1575.329367	705.7999878
1575.840348	706.7999878
1576.351274	706.7999878
1576.862146	704.7999878
1577.372964	705.2000122
1577.883727	707.2000122
1578.394436	707.5999756
1578.905091	707.2000122
1579.415692	707.7999878
1579.926239	707.4000244
1580.436731	702.7999878
1580.947169	708.2000122
1581.457553	707.0
1581.967883	708.5999756
1582.478159	707.7999878
1582.98838	706.4000244
1583.498548	706.2000122
1584.008661	704.4000244
1584.51872	706.2000122
1585.028725	708.2000122
1585.538675	704.2000122
1586.048572	708.4000244
1586.558414	708.0
1587.068202	706.2000122
1587.577936	707.4000244
