1037.211545	691.5999756
1037.778412	686.5999756
1038.345221	687.5999756
1038.911973	688.4000244
1039.478666	685.7999878
1040.045302	683.7999878
1040.61188	690.2000122
1041.178401	683.5999756
1041.744863	688.2000122
1042.311268	684.4000244
1042.877615	686.0
1043.443905	682.4000244
1044.010136	684.5999756
1044.57631	683.4000244
1045.142426	683.4000244
1045.708484	682.4000244
1046.274485	681.2000122
1046.840427	685.0
1047.406312	682.0
1047.97214	684.5999756
1048.537909	683.2000122
1049.103621	680.7999878
1049.669275	683.4000244
1050.234871	680.2000122
1050.80041	682.2000122
1051.365891	681.0
1051.931314	682.0
1052.49668	684.2000122
1053.061988	678.2000122
1053.627238	681.2000122
1054.19243	678.7999878
1054.757565	680.0
1055.322642	680.7999878
1055.887661	678.7999878
1056.452623	683.5999756
1057.017527	677.7999878
1057.582374	681.5999756
1058.147162	680.0
1058.711893	679.2000122
1059.276567	679.0
1059.841183	680.5999756
1060.405741	677.5999756
1060.970241	679.2000122
1061.534684	678.5999756
1062.099069	679.2000122
1062.663397	683.2000122
1063.227667	679.5999756
1063.791879	684.0
1064.356034	679.5999756
1064.920131	683.7999878
1065.48417	677.7999878
1066.048152	679.5999756
1066.612076	676.4000244
1067.175943	681.4000244
1067.739752	680.4000244
1068.303504	680.2000122
1068.867197	679.7999878
1069.430834	676.5999756
1069.994413	676.2000122
1070.557934	677.7999878
1071.121397	680.5999756
1071.684803	677.0
1072.248152	680.0
1072.811443	678.2000122
1073.374676	681.7999878
1073.937852	675.5999756
1074.50097	678.2000122
1075.064031	676.5999756
1075.627034	679.5999756
1076.18998	674.2000122
1076.752868	678.4000244
1077.315698	680.0
1077.878471	678.0
1078.441187	682.2000122
1079.003845	678.7999878
1079.566446	674.7999878
1080.128989	679.7999878
1080.691474	674.7999878
1081.253902	675.4000244
1081.816273	675.2000122
1082.378586	679.0
1082.940841	676.7999878
1083.503039	681.0
1084.06518	677.4000244
1084.627263	677.7999878
1085.189289	678.4000244
1085.751257	675.0
1086.313168	677.5999756
1086.875021	676.2000122
1087.436817	677.7999878
1087.998555	679.0
1088.560236	679.0
1089.12186	678.7999878
1089.683426	672.4000244
1090.244934	675.5999756
1090.806386	675.7999878
1091.367779	676.7999878
1091.929116	681.7999878
1092.490395	675.5999756
1093.051616	677.7999878
1093.61278	678.0
1094.173887	678.4000244
1094.734936	677.7999878
1095.295928	675.0
1095.856863	677.0
1096.41774	675.0
1096.97856	676.5999756
1097.539322	676.2000122
1098.100027	674.4000244
1098.660675	677.7999878
1099.221265	675.7999878
1099.781798	677.4000244
1100.342274	674.2000122
1100.902692	675.2000122
1101.463053	675.5999756
1102.023356	673.5999756
1102.583602	673.7999878
1103.143791	676.7999878
1103.703922	673.5999756
1104.263996	674.7999878
1104.824013	674.2000122
1105.383973	673.0
1105.943875	676.7999878
1106.50372	678.2000122
1107.063507	676.5999756
1107.623237	676.7999878
1108.18291	677.4000244
1108.742526	673.5999756
1109.302084	674.5999756
1109.861585	675.7999878
1110.421029	676.7999878
1110.980416	678.0
1111.539745	677.0
1112.099017	680.0
1112.658231	675.0
1113.217389	673.7999878
1113.776489	675.7999878
1114.335531	673.7999878
1114.894517	678.5999756
1115.453445	675.7999878
1116.012316	675.4000244
1116.57113	674.2000122
1117.129887	675.4000244
1117.688586	677.7999878
1118.247228	677.0
1118.805813	675.4000244
1119.364341	674.2000122
1119.922811	673.4000244
1120.481224	676.0
1121.03958	673.0
1121.597879	674.7999878
1122.156121	676.5999756
1122.714305	676.5999756
1123.272432	673.2000122
1123.830502	674.0
1124.388515	673.5999756
1124.946471	674.4000244
1125.504369	676.2000122
1126.062211	673.0
1126.619995	674.5999756
1127.177722	677.2000122
1127.735391	676.2000122
1128.293004	676.4000244
1128.850559	678.7999878
1129.408058	671.5999756
1129.965499	676.0
1130.522883	677.4000244
1131.08021	673.7999878
1131.637479	676.0
1132.194692	676.7999878
1132.751847	673.2000122
1133.308946	672.2000122
1133.865987	677.4000244
1134.422971	672.2000122
1134.979898	676.4000244
1135.536768	671.5999756
1136.09358	674.2000122
1136.650336	676.0
1137.207035	672.4000244
1137.763676	673.7999878
1138.32026	673.5999756
1138.876788	672.7999878
1139.433258	674.7999878
1139.989671	672.0
1140.546027	672.2000122
1141.102326	674.4000244
1141.658568	672.4000244
1142.214753	675.5999756
1142.770881	674.5999756
1143.326951	672.7999878
1143.882965	673.4000244
1144.438922	674.5999756
1144.994821	672.4000244
1145.550664	672.2000122
1146.106449	677.0
1146.662178	673.4000244
1147.217849	676.5999756
1147.773464	674.0
1148.329021	674.7999878
1148.884521	671.4000244
1149.439965	673.5999756
1149.995351	678.2000122
1150.55068	676.2000122
1151.105953	679.0
1151.661168	672.0
1152.216326	676.0
1152.771428	672.5999756
1153.326472	672.0
1153.88146	675.5999756
1154.43639	672.5999756
1154.991263	674.5999756
1155.54608	672.0
1156.100839	671.7999878
1156.655542	672.7999878
1157.210188	674.2000122
1157.764776	674.4000244
1158.319308	673.0
1158.873783	674.5999756
1159.428201	674.2000122
1159.982561	671.4000244
1160.536865	671.4000244
1161.091112	674.2000122
1161.645302	670.2000122
1162.199436	669.4000244
1162.753512	674.0
1163.307531	672.2000122
1163.861494	674.7999878
1164.415399	669.0
1164.969248	673.4000244
1165.523039	676.4000244
1166.076774	671.4000244
1166.630452	670.5999756
1167.184073	671.5999756
1167.737637	670.0
1168.291144	670.7999878
1168.844595	671.7999878
1169.397988	673.7999878
1169.951325	670.7999878
1170.504605	673.5999756
1171.057828	670.7999878
1171.610994	675.0
1172.164103	672.0
1172.717155	672.2000122
1173.270151	670.5999756
1173.823089	674.2000122
1174.375971	673.7999878
1174.928796	673.2000122
1175.481564	672.0
1176.034276	671.2000122
1176.58693	671.7999878
1177.139528	673.0
1177.692069	670.7999878
1178.244553	671.5999756
1178.79698	673.2000122
1179.34935	671.7999878
1179.901664	670.4000244
1180.453921	674.7999878
1181.006121	673.2000122
1181.558264	670.7999878
1182.110351	671.0
1182.66238	674.5999756
1183.214353	673.7999878
1183.76627	670.2000122
1184.318129	674.4000244
1184.869932	674.4000244
1185.421677	670.5999756
1185.973367	674.2000122
1186.524999	674.4000244
1187.076574	670.2000122
1187.628093	669.4000244
1188.179555	685.4000244
1188.730961	673.2000122
1189.282309	672.2000122
1189.833601	671.5999756
1190.384837	673.4000244
1190.936015	672.4000244
1191.487137	672.4000244
1192.038202	672.7999878
1192.58921	670.4000244
1193.140162	674.2000122
1193.691057	673.4000244
1194.241895	670.2000122
1194.792676	673.2000122
1195.343401	672.4000244
1195.894069	671.0
1196.444681	671.4000244
1196.995235	673.0
1197.545733	674.5999756
1198.096175	669.4000244
1198.646559	670.4000244
1199.196887	670.4000244
1199.747159	674.7999878
1200.297374	670.5999756
1200.847532	671.2000122
1201.397633	669.2000122
1201.947678	669.2000122
1202.497666	672.4000244
1203.047598	671.4000244
1203.597472	674.4000244
1204.147291	671.5999756
1204.697052	670.2000122
1205.246757	669.5999756
1205.796406	672.4000244
1206.345997	672.0
1206.895532	671.2000122
1207.445011	670.5999756
1207.994433	673.2000122
1208.543798	672.7999878
1209.093107	675.2000122
1209.642359	671.0
1210.191554	674.2000122
1210.740693	671.7999878
1211.289776	674.4000244
1211.838801	673.2000122
1212.387771	670.7999878
1212.936683	673.7999878
1213.485539	670.4000244
1214.034339	672.2000122
1214.583082	673.2000122
1215.131768	670.4000244
1215.680398	675.4000244
1216.228971	672.5999756
1216.777488	675.7999878
1217.325948	672.2000122
1217.874352	670.7999878
1218.422699	672.5999756
1218.970989	673.4000244
1219.519223	673.4000244
1220.067401	671.7999878
1220.615522	669.7999878
1221.163586	676.0
1221.711594	672.2000122
1222.259546	674.4000244
1222.807441	672.4000244
1223.355279	669.7999878
1223.903061	671.5999756
1224.450787	672.5999756
1224.998455	672.5999756
1225.546068	670.0
1226.093624	675.2000122
1226.641123	674.5999756
1227.188567	673.2000122
1227.735953	676.2000122
1228.283283	675.0
1228.830557	672.0
1229.377774	673.7999878
1229.924935	671.2000122
1230.472039	671.2000122
1231.019087	673.4000244
1231.566078	674.2000122
1232.113013	674.5999756
1232.659892	672.4000244
1233.206714	676.7999878
1233.753479	673.5999756
1234.300188	672.5999756
1234.846841	673.4000244
1235.393438	675.0
1235.939978	674.5999756
1236.486461	673.5999756
1237.032888	676.0
1237.579259	676.4000244
1238.125573	674.7999878
1238.671831	676.2000122
1239.218033	675.5999756
1239.764178	675.7999878
1240.310267	672.2000122
1240.856299	671.5999756
1241.402275	671.5999756
1241.948194	674.4000244
1242.494058	675.4000244
1243.039865	675.7999878
1243.585615	675.0
1244.131309	670.4000244
1244.676947	672.5999756
1245.222528	675.0
1245.768053	675.4000244
1246.313522	670.7999878
1246.858935	674.0
1247.404291	675.7999878
1247.94959	675.0
1248.494834	675.5999756
1249.040021	678.5999756
1249.585152	675.7999878
1250.130226	675.5999756
1250.675244	681.2000122
1251.220206	675.7999878
1251.765111	676.2000122
1252.30996	675.5999756
1252.854753	673.7999878
1253.39949	676.4000244
1253.94417	672.7999878
1254.488794	676.0
1255.033362	682.7999878
1255.577873	675.0
1256.122328	674.4000244
1256.666727	677.0
1257.21107	675.2000122
1257.755356	678.4000244
1258.299586	673.5999756
1258.84376	679.7999878
1259.387877	680.5999756
1259.931939	678.7999878
1260.475944	677.7999878
1261.019892	676.0
1261.563785	676.7999878
1262.107621	676.2000122
1262.651401	678.5999756
1263.195125	688.2000122
1263.738793	686.4000244
1264.282404	701.4000244
1264.825959	720.7999878
1265.369458	735.2000122
1265.912901	708.4000244
1266.456287	693.7999878
1266.999618	684.4000244
1267.542892	679.5999756
1268.08611	678.5999756
1268.629271	675.0
1269.172377	675.4000244
1269.715426	675.0
1270.258419	676.2000122
1270.801356	676.5999756
1271.344237	674.0
1271.887061	677.0
1272.42983	677.0
1272.972542	674.4000244
1273.515198	676.0
1274.057798	675.7999878
1274.600342	674.7999878
1275.142829	676.2000122
1275.685261	673.4000244
1276.227636	677.5999756
1276.769955	674.7999878
1277.312218	674.7999878
1277.854425	676.5999756
1278.396576	676.5999756
1278.93867	677.4000244
1279.480709	680.5999756
1280.022691	678.4000244
1280.564618	675.7999878
1281.106488	681.0
1281.648302	684.7999878
1282.19006	688.4000244
1282.731761	695.4000244
1283.273407	708.7999878
1283.814997	727.5999756
1284.35653	811.7999878
1284.898008	1125.599976
1285.439429	1582.800049
1285.980794	1174.0
1286.522104	802.0
1287.063357	723.5999756
1287.604554	699.7999878
1288.145695	689.5999756
1288.68678	689.0
1289.227808	685.4000244
1289.768781	680.7999878
1290.309698	680.0
1290.850559	678.7999878
1291.391363	679.7999878
1291.932112	675.2000122
1292.472804	678.2000122
1293.013441	677.4000244
1293.554022	675.0
1294.094546	674.0
1294.635014	675.2000122
1295.175427	677.2000122
1295.715783	675.4000244
1296.256084	674.0
1296.796328	670.5999756
1297.336516	677.2000122
1297.876649	673.7999878
1298.416725	676.0
1298.956745	674.7999878
1299.49671	674.0
1300.036618	672.4000244
1300.576471	676.5999756
1301.116267	673.0
1301.656007	672.5999756
1302.195692	677.4000244
1302.73532	677.0
1303.274893	672.7999878
1303.81441	674.7999878
1304.35387	674.5999756
1304.893275	674.0
1305.432623	673.4000244
1305.971916	673.2000122
1306.511153	672.4000244
1307.050334	670.4000244
1307.589459	676.4000244
1308.128528	671.7999878
1308.667541	676.4000244
1309.206498	672.5999756
1309.745399	677.4000244
1310.284244	670.0
1310.823033	674.7999878
1311.361767	672.5999756
1311.900444	673.2000122
1312.439066	673.2000122
1312.977632	673.4000244
1313.516141	678.2000122
1314.054595	675.2000122
1314.592993	671.7999878
1315.131335	671.0
1315.669622	673.2000122
1316.207852	671.7999878
1316.746026	673.2000122
1317.284145	676.0
1317.822208	675.7999878
1318.360215	675.0
1318.898166	676.7999878
1319.436061	675.2000122
1319.9739	674.0
1320.511683	673.2000122
1321.049411	676.0
1321.587082	675.2000122
1322.124698	675.7999878
1322.662258	672.2000122
1323.199762	671.2000122
1323.737211	673.0
1324.274603	674.0
1324.81194	673.2000122
1325.349221	670.4000244
1325.886446	676.2000122
1326.423615	672.0
1326.960728	673.4000244
1327.497786	675.4000244
1328.034788	675.7999878
1328.571734	671.4000244
1329.108624	673.0
1329.645458	678.0
1330.182237	675.4000244
1330.718959	674.0
1331.255626	673.0
1331.792238	672.2000122
1332.328793	677.0
1332.865293	674.2000122
1333.401737	672.7999878
1333.938125	672.7999878
1334.474457	675.7999878
1335.010734	674.0
1335.546954	674.4000244
1336.083119	672.4000244
1336.619229	670.7999878
1337.155282	674.4000244
1337.69128	669.0
1338.227222	671.5999756
1338.763109	674.2000122
1339.298939	674.7999878
1339.834714	672.7999878
1340.370433	671.2000122
1340.906097	669.0
1341.441704	674.0
1341.977256	670.0
1342.512752	672.5999756
1343.048193	672.5999756
1343.583578	673.5999756
1344.118907	675.7999878
1344.65418	672.4000244
1345.189398	674.4000244
1345.72456	674.7999878
1346.259667	670.7999878
1346.794717	677.2000122
1347.329712	671.4000244
1347.864652	672.2000122
1348.399535	673.2000122
1348.934363	674.7999878
1349.469135	672.4000244
1350.003852	676.0
1350.538513	673.4000244
1351.073118	675.2000122
1351.607668	674.5999756
1352.142162	671.7999878
1352.6766	670.2000122
1353.210983	671.5999756
1353.74531	676.4000244
1354.279582	676.0
1354.813797	675.7999878
1355.347957	672.5999756
1355.882062	674.5999756
1356.416111	673.4000244
1356.950104	675.2000122
1357.484042	671.4000244
1358.017924	676.0
1358.55175	674.4000244
1359.085521	673.7999878
1359.619236	675.2000122
1360.152896	674.7999878
1360.6865	674.7999878
1361.220048	676.4000244
1361.753541	677.0
1362.286978	671.7999878
1362.82036	675.7999878
1363.353686	677.4000244
1363.886957	676.5999756
1364.420172	676.7999878
1364.953331	672.0
1365.486435	676.0
1366.019483	678.4000244
1366.552476	676.0
1367.085413	677.5999756
1367.618294	674.5999756
1368.15112	672.4000244
1368.683891	674.0
1369.216606	672.2000122
1369.749265	683.0
1370.281869	694.0
1370.814417	689.0
1371.34691	679.0
1371.879347	674.7999878
1372.411729	677.0
1372.944055	677.0
1373.476326	677.0
1374.008541	676.0
1374.540701	675.4000244
1375.072805	675.5999756
1375.604854	673.7999878
1376.136847	675.4000244
1376.668784	676.2000122
1377.200667	675.5999756
1377.732493	676.2000122
1378.264265	677.0
1378.79598	675.2000122
1379.32764	677.4000244
1379.859245	677.0
1380.390795	678.4000244
1380.922288	678.2000122
1381.453727	677.5999756
1381.98511	679.2000122
1382.516437	681.2000122
1383.047709	678.0
1383.578926	680.5999756
1384.110087	686.2000122
1384.641192	686.7999878
1385.172242	686.4000244
1385.703237	699.5999756
1386.234177	706.5999756
1386.76506	717.7999878
1387.295889	749.5999756
1387.826662	917.5999756
1388.357379	1701.599976
1388.888042	2196.600098
1389.418648	1158.199951
1389.9492	787.0
1390.479696	719.7999878
1391.010136	700.0
1391.540521	690.0
1392.070851	685.4000244
1392.601126	682.0
1393.131344	686.0
1393.661508	681.4000244
1394.191616	681.5999756
1394.721669	675.2000122
1395.251666	674.7999878
1395.781609	676.0
1396.311495	676.4000244
1396.841327	677.7999878
1397.371102	678.2000122
1397.900823	677.4000244
1398.430488	675.7999878
1398.960098	675.4000244
1399.489653	677.7999878
1400.019152	676.4000244
1400.548596	671.7999878
1401.077984	679.5999756
1401.607317	675.2000122
1402.136595	674.4000244
1402.665818	671.5999756
1403.194985	675.7999878
1403.724097	674.0
1404.253153	678.5999756
1404.782154	677.2000122
1405.3111	678.5999756
1405.839991	676.2000122
1406.368826	678.7999878
1406.897606	676.4000244
1407.426331	680.4000244
1407.955	683.7999878
1408.483614	689.5999756
1409.012173	703.2000122
1409.540676	746.4000244
1410.069124	791.4000244
1410.597517	761.2000122
1411.125855	704.0
1411.654137	683.4000244
1412.182364	677.7999878
1412.710536	677.5999756
1413.238653	678.4000244
1413.766714	676.2000122
1414.29472	676.7999878
1414.822671	675.4000244
1415.350566	674.4000244
1415.878407	671.4000244
1416.406192	669.7999878
1416.933921	675.2000122
1417.461596	674.5999756
1417.989215	673.4000244
1418.516779	674.7999878
1419.044288	674.0
1419.571742	676.5999756
1420.09914	672.7999878
1420.626483	672.2000122
1421.153771	673.0
1421.681004	674.7999878
1422.208182	672.2000122
1422.735304	675.5999756
1423.262371	674.7999878
1423.789383	673.2000122
1424.31634	672.7999878
1424.843241	674.0
1425.370088	673.5999756
1425.896879	674.7999878
1426.423615	678.0
1426.950296	674.2000122
1427.476921	673.5999756
1428.003492	674.7999878
1428.530007	669.4000244
1429.056467	672.5999756
1429.582872	673.7999878
1430.109222	673.7999878
1430.635517	672.2000122
1431.161756	671.4000244
1431.687941	670.4000244
1432.21407	671.5999756
1432.740144	669.4000244
1433.266163	671.5999756
1433.792127	671.2000122
1434.318035	669.7999878
1434.843889	671.0
1435.369687	670.7999878
1435.895431	670.5999756
1436.421119	672.4000244
1436.946752	670.7999878
1437.47233	682.2000122
1438.52332	674.5999756
1439.048733	668.7999878
1439.57409	669.0
1440.099393	673.2000122
1440.62464	673.4000244
1441.149832	670.0
1441.67497	671.0
1442.200052	670.5999756
1442.725079	672.5999756
1443.250051	673.7999878
1443.774967	672.2000122
1444.299829	673.7999878
1444.824636	669.7999878
1445.349388	670.0
1445.874084	671.7999878
1446.398726	668.4000244
1446.923312	670.4000244
1447.447844	670.4000244
1447.97232	668.4000244
1448.496741	669.7999878
1449.021108	669.5999756
1449.545419	668.0
1450.069675	666.5999756
1450.593876	669.7999878
1451.118022	670.4000244
1451.642114	669.2000122
1452.16615	672.4000244
1452.690131	669.4000244
1453.214057	671.2000122
1453.737928	668.7999878
1454.261744	670.2000122
1454.785505	668.4000244
1455.309211	667.4000244
1455.832862	670.2000122
1456.356458	669.5999756
1456.879999	667.0
1457.403485	671.4000244
1457.926917	671.2000122
1458.450293	668.7999878
1458.973614	672.0
1459.49688	671.7999878
1460.020091	668.0
1460.543247	669.2000122
1461.066349	669.4000244
1461.589395	667.5999756
1462.112386	669.2000122
1462.635323	668.2000122
1463.158204	672.0
1463.681031	669.7999878
1464.203802	672.4000244
1464.726519	667.4000244
1465.249181	668.7999878
1465.771787	670.7999878
1466.294339	668.7999878
1466.816836	669.2000122
1467.339278	671.4000244
1467.861665	671.0
1468.383997	667.4000244
1468.906274	668.0
1469.428496	669.4000244
1469.950664	668.0
1470.472776	670.0
1470.994834	669.5999756
1471.516837	669.5999756
1472.038784	667.7999878
1472.560677	668.0
1473.082515	668.2000122
1473.604298	668.4000244
1474.126026	668.5999756
1474.6477	668.0
1475.169318	667.7999878
1475.690882	667.2000122
1476.212391	668.4000244
1476.733844	668.2000122
1477.255243	669.4000244
1477.776588	667.7999878
1478.297877	668.4000244
1478.819111	668.4000244
1479.340291	666.2000122
1479.861416	667.5999756
1480.382485	669.5999756
1480.9035	669.7999878
1481.424461	669.7999878
1481.945366	668.5999756
1482.466217	672.4000244
1482.987012	666.5999756
1483.507753	667.5999756
1484.028439	669.2000122
1484.54907	671.2000122
1485.069647	667.4000244
1485.590168	667.7999878
1486.110635	669.2000122
1486.631047	666.7999878
1487.151404	673.0
1487.671707	671.2000122
1488.191955	671.2000122
1488.712147	667.7999878
1489.232285	667.2000122
1489.752369	666.5999756
1490.272397	667.2000122
1490.792371	669.4000244
1491.31229	668.7999878
1491.832154	670.2000122
1492.351963	669.0
1492.871718	666.0
1493.391418	668.5999756
1493.911063	667.7999878
1494.430653	667.2000122
1494.950189	674.5999756
1495.46967	668.5999756
1495.989096	668.7999878
1496.508467	667.2000122
1497.027784	668.2000122
1497.547045	666.0
1498.066253	670.0
1498.585405	664.5999756
1499.104503	669.5999756
1499.623546	667.2000122
1500.142534	666.5999756
1500.661467	667.2000122
1501.180346	668.7999878
1501.69917	665.2000122
1502.21794	666.7999878
1502.736654	668.0
1503.255314	666.5999756
1503.77392	667.5999756
1504.29247	669.7999878
1504.810966	664.5999756
1505.329408	669.7999878
1505.847794	672.7999878
1506.366126	666.5999756
1506.884403	667.2000122
1507.402626	666.5999756
1507.920794	666.0
1508.438907	668.2000122
1508.956965	667.0
1509.474969	670.5999756
1509.992918	667.7999878
1510.510813	666.7999878
1511.028653	665.5999756
1511.546438	665.5999756
1512.064169	666.2000122
1512.581845	667.0
1513.099466	666.2000122
1513.617033	663.7999878
1514.134545	664.2000122
1514.652002	667.2000122
1515.169405	666.4000244
1515.686753	666.0
1516.204047	668.4000244
1516.721286	666.4000244
1517.23847	666.0
1517.7556	666.5999756
1518.272675	669.2000122
1518.789695	666.7999878
1519.306661	665.7999878
1519.823573	667.4000244
1520.340429	668.5999756
1520.857232	666.2000122
1521.373979	667.2000122
1521.890672	669.0
1522.407311	666.5999756
1522.923895	667.7999878
1523.440424	671.0
1523.956899	666.5999756
1524.473319	669.0
1524.989684	671.5999756
1525.505995	667.0
1526.022252	667.7999878
1526.538454	667.0
1527.054601	667.4000244
1527.570694	669.0
1528.086732	668.7999878
1528.602716	667.2000122
1529.118645	666.4000244
1529.63452	670.0
1530.15034	666.4000244
1530.666106	668.7999878
1531.181817	667.7999878
1531.697473	667.7999878
1532.213075	668.7999878
1532.728623	667.5999756
1533.244116	669.0
1533.759554	667.7999878
1534.274938	666.2000122
1534.790268	667.5999756
1535.305543	668.4000244
1535.820764	667.7999878
1536.33593	667.7999878
1536.851041	667.7999878
1537.366098	671.4000244
1537.881101	666.7999878
1538.396049	668.4000244
1538.910943	667.0
1539.425782	663.7999878
1539.940567	667.5999756
1540.455297	665.0
1540.969973	667.2000122
1541.484594	664.0
1541.999161	666.7999878
1542.513673	667.0
1543.028131	669.4000244
1543.542535	668.0
1544.056884	665.2000122
1544.571179	666.5999756
1545.085419	667.5999756
1545.599605	666.7999878
1546.113736	666.7999878
1546.627813	666.2000122
1547.141836	668.0
1547.655804	666.0
1548.169718	668.7999878
1548.683577	665.7999878
1549.197382	666.5999756
1549.711132	665.4000244
1550.224829	665.7999878
1550.73847	671.2000122
1551.252058	665.7999878
1551.76559	667.2000122
1552.279069	665.4000244
1552.792493	670.2000122
1553.305863	664.4000244
1553.819178	668.4000244
1554.332439	666.5999756
1554.845646	668.4000244
1555.358798	667.5999756
1555.871896	665.7999878
1556.38494	669.2000122
1556.897929	667.4000244
1557.410864	668.4000244
1557.923744	665.2000122
1558.436571	664.0
1558.949342	666.4000244
1559.46206	668.7999878
1559.974723	667.5999756
1560.487332	666.0
1560.999886	667.0
1561.512386	668.5999756
1562.024832	667.4000244
1562.537224	668.4000244
1563.049561	668.0
1563.561844	670.4000244
1564.074072	665.2000122
1564.586247	667.5999756
1565.098367	665.7999878
1565.610432	667.2000122
1566.122444	664.4000244
1566.634401	667.0
1567.146304	669.5999756
1567.658152	665.5999756
1568.169946	669.0
1568.681686	666.2000122
1569.193372	667.5999756
1569.705003	666.4000244
1570.21658	667.7999878
1570.728103	666.0
1571.239572	669.0
1571.750986	667.4000244
1572.262346	669.4000244
1572.773652	666.0
1573.284904	668.7999878
1573.796101	666.2000122
1574.307244	666.5999756
1574.818333	668.5999756
1575.329367	665.7999878
1575.840348	667.5999756
1576.351274	666.7999878
1576.862146	666.2000122
1577.372964	666.0
1577.883727	667.0
1578.394436	667.2000122
1578.905091	667.4000244
1579.415692	664.0
1579.926239	667.5999756
1580.436731	667.7999878
1580.947169	665.4000244
1581.457553	669.0
1581.967883	664.7999878
1582.478159	667.4000244
1582.98838	667.5999756
1583.498548	666.4000244
1584.008661	668.7999878
1584.51872	665.2000122
1585.028725	666.5999756
1585.538675	669.5999756
1586.048572	666.2000122
1586.558414	668.0
1587.068202	670.0
1587.577936	668.0
