1042.452273	696.0
1043.018714	694.0
1043.585098	692.5999756
1044.151424	692.2000122
1044.717692	695.0
1045.283903	690.2000122
1045.850056	689.7999878
1046.416151	690.7999878
1046.982188	691.7999878
1047.548167	693.5999756
1048.114089	695.0
1048.679953	692.2000122
1049.24576	689.5999756
1049.811509	689.5999756
1050.3772	691.4000244
1050.942833	690.7999878
1051.508408	689.2000122
1052.073926	685.4000244
1052.639387	687.4000244
1053.204789	691.4000244
1053.770134	689.7999878
1054.335421	688.7999878
1054.900651	689.5999756
1055.465823	687.7999878
1056.030937	686.2000122
1056.595993	690.4000244
1057.160992	689.4000244
1057.725934	687.2000122
1058.290817	684.7999878
1058.855643	687.7999878
1059.420411	688.5999756
1059.985122	686.4000244
1060.549775	689.0
1061.114371	687.0
1061.678908	690.2000122
1062.243389	688.0
1062.807811	687.4000244
1063.372176	689.2000122
1063.936483	686.4000244
1064.500733	690.2000122
1065.064925	689.2000122
1065.62906	686.2000122
1066.193137	687.4000244
1066.757156	684.4000244
1067.321118	689.0
1067.885022	683.4000244
1068.448869	684.7999878
1069.012658	685.0
1069.57639	687.4000244
1070.140063	693.4000244
1070.70368	685.0
1071.267239	686.0
1071.83074	686.7999878
1072.394184	685.4000244
1072.95757	683.5999756
1073.520899	683.7999878
1074.08417	683.2000122
1074.647383	685.7999878
1075.21054	685.0
1075.773638	685.7999878
1076.336679	682.0
1076.899663	685.2000122
1077.462589	686.2000122
1078.025457	684.4000244
1078.588268	687.5999756
1079.151022	685.2000122
1079.713718	687.5999756
1080.276356	686.7999878
1080.838937	685.2000122
1081.401461	687.7999878
1081.963927	687.2000122
1082.526336	689.2000122
1083.088687	683.7999878
1083.650981	686.7999878
1084.213217	684.0
1084.775396	685.4000244
1085.337517	684.7999878
1085.899581	683.7999878
1086.461587	684.5999756
1087.023536	685.7999878
1087.585428	686.2000122
1088.147262	687.4000244
1088.709039	687.4000244
1089.270758	689.5999756
1089.83242	689.7999878
1090.394024	682.4000244
1090.955571	685.4000244
1091.517061	683.2000122
1092.078493	683.4000244
1092.639868	687.4000244
1093.201185	683.7999878
1093.762445	687.7999878
1094.323648	685.4000244
1094.884793	686.4000244
1095.445881	686.0
1096.006911	682.5999756
1096.567884	684.0
1097.1288	688.2000122
1097.689659	685.4000244
1098.25046	686.5999756
1098.811203	684.2000122
1099.37189	683.2000122
1099.932518	686.7999878
1100.49309	685.2000122
1101.053604	683.4000244
1101.614061	681.2000122
1102.174461	682.4000244
1102.734803	686.0
1103.295088	684.5999756
1103.855316	680.2000122
1104.415486	685.7999878
1104.975599	682.5999756
1105.535655	686.2000122
1106.095653	685.5999756
1106.655594	685.0
1107.215478	687.2000122
1107.775305	685.5999756
1108.335074	685.4000244
1108.894786	683.4000244
1109.45444	685.2000122
1110.014038	688.0
1110.573578	685.0
1111.133061	687.2000122
1111.692486	685.2000122
1112.251854	687.0
1112.811165	682.5999756
1113.370419	687.0
1113.929616	683.5999756
1114.488755	685.2000122
1115.047837	684.0
1115.606862	682.5999756
1116.16583	687.0
1116.72474	685.5999756
1117.283593	686.0
1117.842389	684.0
1118.401128	682.4000244
1118.959809	686.7999878
1119.518433	685.7999878
1120.077	684.0
1120.63551	682.0
1121.193963	686.0
1121.752358	688.0
1122.310697	680.2000122
1122.868978	685.2000122
1123.427202	683.4000244
1123.985368	682.5999756
1124.543478	683.2000122
1125.10153	679.7999878
1125.659526	682.7999878
1126.217464	683.2000122
1126.775345	684.2000122
1127.333168	685.4000244
1127.890935	681.0
1128.448644	683.0
1129.006297	683.5999756
1129.563892	683.0
1130.12143	682.2000122
1130.678911	684.5999756
1131.236335	686.2000122
1131.793701	683.4000244
1132.351011	684.2000122
1132.908263	682.7999878
1133.465458	683.4000244
1134.022597	687.0
1134.579678	685.0
1135.136702	683.7999878
1135.693669	683.7999878
1136.250578	686.4000244
1136.807431	683.2000122
1137.364227	683.7999878
1137.920965	682.0
1138.477647	681.5999756
1139.034271	683.4000244
1139.590839	680.4000244
1140.147349	681.2000122
1140.703802	683.4000244
1141.260198	683.5999756
1141.816537	682.0
1142.37282	684.7999878
1142.929045	682.7999878
1143.485213	690.2000122
1144.041323	689.2000122
1144.597377	684.2000122
1145.153374	685.2000122
1145.709314	685.0
1146.265197	682.0
1146.821023	686.4000244
1147.376792	695.4000244
1147.932503	692.2000122
1148.488158	688.7999878
1149.043756	685.4000244
1149.599297	687.4000244
1150.154781	713.2000122
1150.710207	758.2000122
1151.265577	726.5999756
1151.82089	697.7999878
1152.376146	688.5999756
1152.931345	684.4000244
1153.486487	683.5999756
1154.041572	683.4000244
1154.5966	684.2000122
1155.151571	685.4000244
1155.706485	683.5999756
1156.261342	683.4000244
1156.816142	687.0
1157.370885	688.2000122
1157.925572	685.0
1158.480201	682.2000122
1159.034774	681.7999878
1159.589289	687.0
1160.143748	684.2000122
1160.698149	687.0
1161.252494	683.0
1161.806782	685.4000244
1162.361013	684.7999878
1162.915187	682.2000122
1163.469304	684.0
1164.023364	680.5999756
1164.577368	683.0
1165.131314	683.7999878
1165.685204	683.7999878
1166.239036	681.5999756
1166.792812	681.4000244
1167.346531	684.0
1167.900193	686.4000244
1168.453798	683.4000244
1169.007347	684.7999878
1169.560838	685.4000244
1170.114273	682.7999878
1170.66765	682.7999878
1171.220971	683.7999878
1171.774235	681.0
1172.327443	683.2000122
1172.880593	681.4000244
1173.433687	683.0
1173.986723	687.0
1174.539703	682.5999756
1175.092626	681.7999878
1175.645493	685.0
1176.198302	682.5999756
1176.751055	682.2000122
1177.303751	682.2000122
1177.85639	679.7999878
1178.408972	684.7999878
1178.961498	680.5999756
1179.513966	684.0
1180.066378	684.2000122
1180.618733	679.4000244
1181.171032	686.4000244
1181.723273	684.0
1182.275458	685.0
1182.827586	683.7999878
1183.379657	683.4000244
1183.931672	682.7999878
1184.48363	681.5999756
1185.035531	685.2000122
1185.587375	684.4000244
1186.139162	683.7999878
1186.690893	684.2000122
1187.242567	686.0
1187.794184	682.2000122
1188.345745	684.2000122
1188.897249	681.0
1189.448696	681.0
1190.000086	685.0
1190.55142	684.5999756
1191.102697	684.7999878
1191.653918	683.5999756
1192.205081	680.4000244
1192.756188	679.0
1193.307238	696.0
1193.858232	682.5999756
1194.409169	685.0
1194.960049	682.5999756
1195.510872	685.2000122
1196.061639	684.5999756
1196.612349	682.2000122
1197.163003	681.0
1197.713599	683.2000122
1198.264139	682.0
1198.814623	685.5999756
1199.36505	682.7999878
1199.91542	684.5999756
1200.465734	685.2000122
1201.01599	678.5999756
1201.566191	678.7999878
1202.116334	680.5999756
1202.666421	683.7999878
1203.216452	681.7999878
1203.766425	679.2000122
1204.316343	685.2000122
1204.866203	682.7999878
1205.416007	681.2000122
1205.965754	683.5999756
1206.515445	680.7999878
1207.065079	680.4000244
1207.614657	683.5999756
1208.164177	681.4000244
1208.713642	680.7999878
1209.26305	684.5999756
1209.812401	682.4000244
1210.361695	681.7999878
1210.910933	685.5999756
1211.460115	679.4000244
1212.00924	683.7999878
1212.558308	684.5999756
1213.10732	684.0
1213.656275	682.0
1214.205174	683.7999878
1214.754016	686.4000244
1215.302801	683.7999878
1215.85153	680.5999756
1216.400203	684.0
1216.948819	683.4000244
1217.497378	683.5999756
1218.045881	682.7999878
1218.594327	686.4000244
1219.142717	681.0
1219.691051	684.0
1220.239327	682.0
1220.787548	683.4000244
1221.335712	683.4000244
1221.883819	682.4000244
1222.43187	683.7999878
1222.979864	679.5999756
1223.527802	682.0
1224.075683	684.5999756
1224.623508	681.5999756
1225.171277	684.4000244
1225.718989	683.7999878
1226.266644	684.5999756
1226.814243	682.4000244
1227.361786	684.2000122
1227.909272	685.4000244
1228.456702	680.7999878
1229.004075	686.2000122
1229.551392	684.2000122
1230.098652	684.0
1230.645856	685.2000122
1231.193003	684.2000122
1231.740094	685.7999878
1232.287129	687.0
1232.834107	681.7999878
1233.381029	684.4000244
1233.927894	682.4000244
1234.474703	681.4000244
1235.021455	684.7999878
1235.568151	683.5999756
1236.114791	685.7999878
1236.661374	683.2000122
1237.207901	682.7999878
1237.754372	684.7999878
1238.300786	684.0
1238.847144	684.4000244
1239.393445	684.0
1239.93969	685.0
1240.485879	682.2000122
1241.032011	681.0
1241.578087	682.7999878
1242.124106	680.4000244
1242.67007	681.5999756
1243.215976	683.2000122
1243.761827	685.5999756
1244.307621	683.4000244
1244.853359	679.7999878
1245.39904	682.7999878
1245.944665	683.4000244
1246.490234	683.5999756
1247.035746	680.0
1247.581203	683.4000244
1248.126602	680.5999756
1248.671946	681.5999756
1249.217233	681.4000244
1249.762464	682.7999878
1250.307638	688.2000122
1250.852757	682.5999756
1251.397819	684.0
1251.942824	681.2000122
1252.487774	683.2000122
1253.032667	681.5999756
1253.577503	684.5999756
1254.122284	686.2000122
1254.667008	681.0
1255.211676	683.0
1255.756288	685.2000122
1256.300843	680.2000122
1256.845342	683.5999756
1257.389785	682.0
1257.934172	680.2000122
1258.478502	686.0
1259.022776	687.4000244
1259.566994	686.7999878
1260.111156	694.5999756
1260.655261	684.5999756
1261.199311	685.7999878
1261.743304	685.4000244
1262.28724	685.0
1262.831121	686.4000244
1263.374945	689.7999878
1263.918713	689.4000244
1264.462425	700.4000244
1265.006081	714.4000244
1265.54968	717.0
1266.093223	700.0
1266.636711	690.4000244
1267.180141	685.7999878
1267.723516	682.5999756
1268.266835	686.0
1268.810097	683.0
1269.353303	684.2000122
1269.896453	684.2000122
1270.439547	681.7999878
1270.982584	684.2000122
1271.525566	683.7999878
1272.068491	681.2000122
1272.61136	683.4000244
1273.154173	679.7999878
1273.69693	682.0
1274.239631	684.7999878
1274.782275	680.0
1275.324864	681.0
1275.867396	682.7999878
1276.409872	680.7999878
1276.952292	681.7999878
1277.494656	679.5999756
1278.036964	679.2000122
1278.579215	683.5999756
1279.121411	682.2000122
1279.66355	687.2000122
1280.205634	681.5999756
1280.747661	683.0
1281.289632	684.4000244
1281.831547	688.0
1282.373406	685.5999756
1282.915209	695.4000244
1283.456955	699.7999878
1283.998646	723.4000244
1284.540281	799.0
1285.081859	1035.599976
1285.623381	1222.599976
1286.164848	923.5999756
1286.706258	740.2000122
1287.247612	707.0
1287.788911	690.0
1288.330153	689.4000244
1288.871339	687.2000122
1289.412469	686.2000122
1289.953543	689.0
1290.494561	688.0
1291.035523	683.7999878
1291.576428	683.7999878
1292.117278	682.2000122
1292.658072	682.4000244
1293.19881	686.2000122
1293.739492	683.2000122
1294.280118	682.7999878
1294.820687	681.5999756
1295.361201	684.7999878
1295.901659	679.0
1296.442061	681.0
1296.982406	683.2000122
1297.522696	683.2000122
1298.06293	685.0
1298.603108	684.5999756
1299.143229	679.7999878
1299.683295	677.4000244
1300.223305	680.4000244
1300.763259	677.5999756
1301.303157	684.2000122
1301.842999	682.7999878
1302.382785	680.7999878
1302.922515	682.0
1303.462189	676.5999756
1304.001807	679.2000122
1304.541369	682.4000244
1305.080875	680.2000122
1305.620326	680.4000244
1306.15972	683.2000122
1306.699058	681.4000244
1307.238341	681.4000244
1307.777567	684.7999878
1308.316738	680.7999878
1308.855853	679.7999878
1309.394912	680.4000244
1309.933915	679.7999878
1310.472862	683.4000244
1311.011753	683.7999878
1311.550588	680.5999756
1312.089367	681.7999878
1312.62809	679.2000122
1313.166758	679.0
1313.70537	681.5999756
1314.243925	680.2000122
1314.782425	681.2000122
1315.320869	678.5999756
1315.859257	678.0
1316.397589	680.5999756
1316.935866	679.2000122
1317.474086	682.2000122
1318.012251	681.4000244
1318.55036	682.2000122
1319.088413	681.4000244
1319.62641	678.5999756
1320.164351	679.7999878
1320.702236	680.2000122
1321.240066	679.2000122
1321.777839	677.7999878
1322.315557	682.4000244
1322.853219	683.0
1323.390826	674.2000122
1323.928376	685.2000122
1324.465871	679.0
1325.003309	680.7999878
1325.540692	677.2000122
1326.07802	679.7999878
1326.615291	684.2000122
1327.152506	681.0
1327.689666	682.7999878
1328.22677	682.0
1328.763818	682.2000122
1329.300811	679.7999878
1329.837747	681.5999756
1330.374628	681.0
1330.911453	682.2000122
1331.448222	680.4000244
1331.984936	681.0
1332.521594	678.7999878
1333.058196	678.5999756
1333.594742	683.5999756
1334.131232	679.7999878
1334.667667	679.4000244
1335.204046	680.7999878
1335.740369	679.5999756
1336.276637	682.2000122
1336.812848	679.2000122
1337.349004	678.7999878
1337.885105	681.7999878
1338.421149	680.4000244
1338.957138	679.5999756
1339.493071	682.0
1340.028949	679.7999878
1340.56477	678.7999878
1341.100536	678.2000122
1341.636246	682.5999756
1342.171901	679.5999756
1342.7075	679.0
1343.243043	678.5999756
1343.77853	681.0
1344.313962	681.5999756
1344.849338	679.0
1345.384659	680.5999756
1345.919923	682.2000122
1346.455133	681.4000244
1346.990286	678.2000122
1347.525384	681.0
1348.060426	679.5999756
1348.595412	679.0
1349.130343	676.2000122
1349.665218	681.4000244
1350.200037	674.0
1350.734801	681.2000122
1351.269509	681.2000122
1351.804162	680.5999756
1352.338758	677.4000244
1352.8733	676.2000122
1353.407785	679.5999756
1353.942215	682.0
1354.476589	678.5999756
1355.010908	681.0
1355.545171	682.7999878
1356.079379	679.4000244
1356.61353	680.7999878
1357.147627	680.7999878
1357.681667	677.4000244
1358.215652	677.7999878
1358.749582	681.0
1359.283456	676.7999878
1359.817274	681.0
1360.351037	676.5999756
1360.884744	679.2000122
1361.418395	679.7999878
1361.951991	681.0
1362.485531	677.4000244
1363.019016	680.4000244
1363.552445	678.7999878
1364.085819	681.2000122
1364.619137	678.4000244
1365.1524	683.4000244
1365.685607	677.2000122
1366.218758	681.5999756
1366.751854	682.7999878
1367.284894	682.0
1367.817879	681.7999878
1368.350808	682.7999878
1368.883682	683.5999756
1369.4165	680.7999878
1369.949263	686.4000244
1370.48197	695.5999756
1371.014622	688.7999878
1371.547218	682.2000122
1372.079758	681.5999756
1372.612244	684.4000244
1373.144673	678.7999878
1373.677047	684.2000122
1374.209366	682.7999878
1374.741629	678.5999756
1375.273836	678.5999756
1375.805989	680.4000244
1376.338085	681.7999878
1376.870126	685.4000244
1377.402112	680.5999756
1377.934042	679.2000122
1378.465917	683.4000244
1378.997736	677.2000122
1379.5295	684.2000122
1380.061208	681.4000244
1380.592861	683.4000244
1381.124459	682.7999878
1381.656	679.0
1382.187487	685.0
1382.718918	679.5999756
1383.250294	679.2000122
1383.781614	687.7999878
1384.312879	683.4000244
1384.844088	687.7999878
1385.375242	689.2000122
1385.90634	692.5999756
1386.437383	700.5999756
1386.968371	712.7999878
1387.499303	746.0
1388.03018	885.2000122
1388.561001	1482.0
1389.091767	1483.400024
1389.622478	884.0
1390.153133	732.2000122
1390.683733	701.5999756
1391.214277	694.5999756
1391.744766	690.7999878
1392.2752	686.5999756
1392.805578	685.2000122
1393.335901	683.0
1393.866168	683.7999878
1394.396381	679.4000244
1394.926537	680.5999756
1395.456639	680.7999878
1395.986685	681.2000122
1396.516675	681.5999756
1397.046611	681.5999756
1397.576491	679.0
1398.106315	680.2000122
1398.636084	681.0
1399.165798	685.5999756
1399.695457	680.5999756
1400.22506	681.5999756
1400.754608	677.7999878
1401.284101	686.7999878
1401.813538	680.2000122
1402.34292	680.7999878
1402.872247	679.7999878
1403.401518	681.2000122
1403.930734	678.2000122
1404.459895	681.2000122
1404.989	682.7999878
1405.51805	679.7999878
1406.047045	680.5999756
1406.575984	680.5999756
1407.104869	683.5999756
1407.633697	686.2000122
1408.162471	684.5999756
1408.691189	689.7999878
1409.219852	696.5999756
1409.74846	727.5999756
1410.277013	754.2000122
1410.80551	719.2000122
1411.333952	690.7999878
1411.862339	685.0
1412.39067	680.5999756
1412.918946	682.0
1413.447167	677.7999878
1413.975333	679.0
1414.503444	679.4000244
1415.031499	679.0
1415.559499	688.0
1416.087444	677.2000122
1416.615333	676.2000122
1417.143167	679.7999878
1417.670947	677.0
1418.19867	678.2000122
1418.726339	675.2000122
1419.253952	680.4000244
1419.781511	676.0
1420.309014	677.0
1420.836461	679.4000244
1421.363854	678.4000244
1421.891191	679.4000244
1422.418474	678.7999878
1422.945701	679.2000122
1423.472872	675.5999756
1423.999989	677.0
1424.52705	680.7999878
1425.054057	678.7999878
1425.581008	679.0
1426.107904	682.2000122
1426.634745	680.5999756
1427.16153	676.4000244
1427.688261	678.0
1428.214936	677.7999878
1428.741556	676.2000122
1429.268121	678.7999878
1429.794631	676.7999878
1430.321085	678.4000244
1430.847485	681.5999756
1431.373829	677.7999878
1431.900118	677.7999878
1432.426353	679.0
1432.952532	677.7999878
1433.478655	680.5999756
1434.004724	678.0
1434.530738	678.0
1435.056696	675.5999756
1435.5826	678.5999756
1436.108448	677.0
1436.634241	676.2000122
1437.159979	678.0
1437.685662	676.7999878
1438.21129	679.7999878
1438.736863	677.0
1439.262381	679.0
1439.787843	675.2000122
1440.313251	678.0
1440.838603	679.7999878
1441.3639	676.2000122
1441.889143	677.2000122
1442.41433	679.2000122
1442.939462	676.4000244
1443.464539	679.2000122
1443.989561	675.7999878
1444.514528	675.4000244
1445.03944	676.4000244
1445.564297	676.2000122
1446.089099	680.2000122
1446.613846	679.4000244
1447.138537	675.0
1447.663174	678.2000122
1448.187756	678.7999878
1448.712282	679.0
1449.236754	677.0
1449.761171	677.2000122
1450.285532	678.0
1450.809839	679.7999878
1451.33409	675.7999878
1451.858287	676.0
1452.382428	677.0
1452.906515	676.7999878
1453.430546	676.5999756
1453.954523	678.0
1454.478444	679.0
1455.002311	677.0
1455.526123	676.0
1456.049879	678.4000244
1456.573581	676.7999878
1457.097227	675.5999756
1457.620819	680.7999878
1458.144356	679.4000244
1458.667837	677.0
1459.191264	671.2000122
1459.714636	676.7999878
1460.237952	676.7999878
1460.761214	678.7999878
1461.284421	678.4000244
1461.807573	678.2000122
1462.33067	676.2000122
1462.853712	678.2000122
1463.376699	682.0
1463.899632	676.0
1464.422509	675.2000122
1464.945331	673.5999756
1465.468099	677.0
1465.990811	677.7999878
1466.513469	675.5999756
1467.036071	679.2000122
1467.558619	676.4000244
1468.081112	678.5999756
1468.60355	678.0
1469.125933	678.7999878
1469.648261	678.0
1470.170534	679.0
1470.692752	676.2000122
1471.214916	681.2000122
1471.737024	677.2000122
1472.259078	677.7999878
1472.781077	674.2000122
1473.303021	676.4000244
1473.82491	678.5999756
1474.346744	678.0
1474.868523	677.5999756
1475.390248	679.2000122
1475.911917	675.7999878
1476.433532	676.2000122
1476.955092	673.4000244
1477.476597	673.4000244
1477.998047	676.4000244
1478.519442	676.4000244
1479.040783	675.7999878
1479.562068	678.4000244
1480.083299	676.7999878
1480.604475	678.4000244
1481.125596	679.7999878
1481.646663	677.5999756
1482.167674	673.7999878
1482.688631	672.7999878
1483.209533	676.4000244
1483.73038	676.7999878
1484.251172	679.5999756
1484.771909	673.7999878
1485.292592	675.7999878
1485.81322	675.5999756
1486.333793	678.7999878
1486.854311	675.0
1487.374775	675.2000122
1487.895183	674.5999756
1488.415537	675.5999756
1488.935836	677.7999878
1489.456081	678.5999756
1489.97627	676.0
1490.496405	673.7999878
1491.016485	672.5999756
1491.536511	674.7999878
1492.056481	675.0
1492.576397	676.5999756
1493.096258	677.4000244
1493.616064	673.5999756
1494.135816	676.0
1494.655513	674.7999878
1495.175155	673.5999756
1495.694742	674.5999756
1496.214274	677.7999878
1496.733752	674.2000122
1497.253175	673.4000244
1497.772544	675.0
1498.291858	677.4000244
1498.811116	674.0
1499.330321	675.7999878
1499.84947	682.0
1500.368565	674.7999878
1500.887605	675.2000122
1501.406591	677.5999756
1501.925521	676.2000122
1502.444397	673.0
1502.963219	676.7999878
1503.481985	674.7999878
1504.000697	675.7999878
1504.519355	674.4000244
1505.037957	676.4000244
1505.556505	673.7999878
1506.074999	673.2000122
1506.593437	674.7999878
1507.111821	675.0
1507.63015	676.4000244
1508.148425	675.5999756
1508.666645	674.2000122
1509.18481	674.7999878
1509.702921	675.7999878
1510.220977	675.5999756
1510.738979	681.4000244
1511.256925	671.4000244
1511.774817	676.0
1513.328166	676.4000244
1513.84584	675.7999878
1514.363459	677.2000122
1514.881023	673.7999878
1515.398533	672.2000122
1515.915988	678.0
1516.433389	676.0
1516.950734	675.7999878
1517.468026	675.7999878
1517.985263	675.5999756
1518.502445	675.0
1519.019572	671.4000244
1519.536645	673.2000122
1520.053664	673.7999878
1520.570628	671.2000122
1521.087537	674.2000122
1521.604392	676.0
1522.121192	671.7999878
1522.637937	672.7999878
1523.154628	678.7999878
1523.671265	678.5999756
1524.187847	675.5999756
1524.704374	674.4000244
1525.220847	673.5999756
1525.737265	676.2000122
1526.253629	679.5999756
1526.769938	675.0
1527.286192	675.0
1527.802392	675.0
1528.318538	673.2000122
1528.834629	673.2000122
1529.350666	676.2000122
1529.866648	673.5999756
1530.382575	674.2000122
1530.898448	673.0
1531.414266	677.0
1531.93003	673.7999878
1532.44574	675.4000244
1532.961395	675.4000244
1533.476995	672.5999756
1533.992541	672.7999878
1534.508033	672.5999756
1535.02347	673.2000122
1535.538852	673.0
1536.05418	675.4000244
1536.569454	674.0
1537.084673	674.4000244
1537.599837	674.4000244
1538.114947	675.0
1538.630003	673.0
1539.145004	675.4000244
1539.659951	675.4000244
1540.174843	673.2000122
1540.689681	672.0
1541.204465	675.0
1541.719194	675.2000122
1542.233868	676.2000122
1542.748488	674.4000244
1543.263054	671.5999756
1543.777565	670.7999878
1544.292022	674.2000122
1544.806424	675.4000244
1545.320772	674.7999878
1545.835066	673.0
1546.349305	674.4000244
1546.863489	673.4000244
1547.37762	675.5999756
1547.891696	671.5999756
1548.405717	673.7999878
1548.919684	677.0
1549.433597	676.4000244
1549.947455	674.7999878
1550.461259	673.2000122
1550.975009	674.5999756
1551.488704	672.0
1552.002345	675.0
1552.515931	672.5999756
1553.029463	674.0
1553.542941	674.0
1554.056364	673.5999756
1554.569733	674.2000122
1555.083048	672.4000244
1555.596308	677.0
1556.109514	675.2000122
1556.622665	674.5999756
1557.135762	674.4000244
1557.648805	675.4000244
1558.161794	674.2000122
1558.674728	671.0
1559.187608	677.2000122
1559.700433	673.2000122
1560.213205	674.2000122
1560.725921	675.5999756
1561.238584	677.2000122
1561.751192	673.5999756
1562.263746	677.5999756
1562.776246	675.0
1563.288691	674.7999878
1563.801082	674.7999878
1564.313419	674.4000244
1564.825701	672.4000244
1565.337929	677.0
1565.850103	673.5999756
1566.362223	675.4000244
1566.874288	677.0
1567.386299	671.0
1567.898256	675.4000244
1568.410158	676.0
1568.922007	674.2000122
1569.4338	677.7999878
1569.94554	674.7999878
1570.457226	676.5999756
1570.968857	672.4000244
1571.480434	675.7999878
1571.991956	676.2000122
1572.503425	676.2000122
1573.014839	675.0
1573.526199	672.5999756
1574.037505	674.0
1574.548756	672.5999756
1575.059953	671.4000244
1575.571096	675.4000244
1576.082185	674.0
1576.59322	671.0
1577.1042	674.7999878
1577.615126	671.0
1578.125998	673.2000122
1578.636816	672.2000122
1579.14758	674.7999878
1579.658289	675.0
1580.168944	674.2000122
1580.679545	671.7999878
1581.190092	674.5999756
1581.700585	671.7999878
1582.211023	676.2000122
1582.721407	676.5999756
1583.231737	675.0
1583.742013	677.0
1584.252235	671.2000122
1584.762403	675.7999878
1585.272516	674.7999878
1585.782575	673.5999756
1586.292581	674.2000122
1586.802532	670.0
1587.312428	674.4000244
1587.822271	670.2000122
1588.33206	676.0
1588.841794	675.4000244
1589.351474	671.7999878
1589.8611	671.2000122
1590.370672	675.7999878
1590.88019	674.4000244
1591.389654	675.5999756
1591.899064	674.2000122
1592.408419	673.4000244
