1037.211545	837.2000122
1037.778412	834.4000244
1038.345221	843.2000122
1038.911973	843.7999878
1039.478666	836.5999756
1040.045302	832.2000122
1040.61188	839.4000244
1041.178401	836.2000122
1041.744863	834.4000244
1042.311268	844.0
1042.877615	835.2000122
1043.443905	835.7999878
1044.010136	837.7999878
1044.57631	828.0
1045.142426	838.7999878
1045.708484	840.4000244
1046.274485	832.5999756
1046.840427	841.0
1047.406312	831.4000244
1047.97214	835.2000122
1048.537909	835.2000122
1049.103621	832.2000122
1049.669275	831.2000122
1050.234871	832.4000244
1050.80041	834.7999878
1051.365891	833.5999756
1051.931314	832.5999756
1052.49668	843.2000122
1053.061988	828.2000122
1053.627238	828.4000244
1054.19243	830.0
1054.757565	834.5999756
1055.322642	826.2000122
1055.887661	837.5999756
1056.452623	833.2000122
1057.017527	830.0
1057.582374	839.0
1058.147162	837.2000122
1058.711893	830.5999756
1059.276567	828.5999756
1059.841183	826.4000244
1060.405741	831.5999756
1060.970241	828.0
1061.534684	830.5999756
1062.099069	829.2000122
1062.663397	833.4000244
1063.227667	822.4000244
1063.791879	829.4000244
1064.356034	825.5999756
1064.920131	832.0
1065.48417	826.0
1066.048152	827.4000244
1066.612076	826.7999878
1067.175943	837.0
1067.739752	835.4000244
1068.303504	828.7999878
1068.867197	832.0
1069.430834	826.5999756
1069.994413	820.2000122
1070.557934	831.5999756
1071.121397	826.5999756
1071.684803	827.5999756
1072.248152	821.2000122
1072.811443	831.7999878
1073.374676	830.0
1073.937852	823.7999878
1074.50097	828.7999878
1075.064031	823.5999756
1075.627034	835.0
1076.18998	827.5999756
1076.752868	831.4000244
1077.315698	832.2000122
1077.878471	821.4000244
1078.441187	827.2000122
1079.003845	825.5999756
1079.566446	821.7999878
1080.128989	829.0
1080.691474	832.7999878
1081.253902	818.7999878
1081.816273	830.0
1082.378586	827.5999756
1082.940841	821.5999756
1083.503039	823.2000122
1084.06518	822.5999756
1084.627263	820.2000122
1085.189289	828.4000244
1085.751257	825.7999878
1086.313168	830.0
1086.875021	821.5999756
1087.436817	833.5999756
1087.998555	828.2000122
1088.560236	831.4000244
1089.12186	822.7999878
1089.683426	823.0
1090.244934	824.7999878
1090.806386	824.5999756
1091.367779	820.0
1091.929116	828.0
1092.490395	819.5999756
1093.051616	831.5999756
1093.61278	823.0
1094.173887	827.0
1094.734936	822.2000122
1095.295928	824.0
1095.856863	814.4000244
1096.41774	823.4000244
1096.97856	827.2000122
1097.539322	819.7999878
1098.100027	820.7999878
1098.660675	825.4000244
1099.221265	821.7999878
1099.781798	817.2000122
1100.342274	825.4000244
1100.902692	824.0
1101.463053	815.0
1102.023356	821.7999878
1102.583602	821.4000244
1103.143791	820.2000122
1103.703922	819.4000244
1104.263996	818.7999878
1104.824013	820.7999878
1105.383973	819.4000244
1105.943875	820.2000122
1106.50372	824.0
1107.063507	823.5999756
1107.623237	814.7999878
1108.18291	816.0
1108.742526	818.7999878
1109.302084	819.4000244
1109.861585	818.2000122
1110.421029	820.2000122
1110.980416	823.7999878
1111.539745	820.4000244
1112.099017	813.7999878
1112.658231	821.5999756
1113.217389	818.7999878
1113.776489	817.2000122
1114.335531	815.0
1114.894517	813.2000122
1115.453445	810.4000244
1116.012316	816.7999878
1116.57113	816.0
1117.129887	818.7999878
1117.688586	818.2000122
1118.247228	813.4000244
1118.805813	819.7999878
1119.364341	824.5999756
1119.922811	816.4000244
1120.481224	815.5999756
1121.03958	819.0
1121.597879	814.0
1122.156121	812.0
1122.714305	812.2000122
1123.272432	820.2000122
1123.830502	816.7999878
1124.388515	819.4000244
1124.946471	816.7999878
1125.504369	817.4000244
1126.062211	819.7999878
1126.619995	815.4000244
1127.177722	817.7999878
1127.735391	814.0
1128.293004	821.4000244
1128.850559	813.5999756
1129.408058	818.4000244
1129.965499	810.5999756
1130.522883	815.0
1131.08021	816.5999756
1131.637479	813.5999756
1132.194692	815.7999878
1132.751847	811.7999878
1133.308946	814.0
1133.865987	819.7999878
1134.422971	814.7999878
1134.979898	812.5999756
1135.536768	814.5999756
1136.09358	811.0
1136.650336	811.2000122
1137.207035	819.0
1137.763676	814.4000244
1138.32026	818.2000122
1138.876788	817.7999878
1139.433258	820.0
1139.989671	809.2000122
1140.546027	816.0
1141.102326	820.0
1141.658568	820.2000122
1142.214753	818.5999756
1142.770881	814.7999878
1143.326951	815.2000122
1143.882965	818.0
1144.438922	808.5999756
1144.994821	817.2000122
1145.550664	818.7999878
1146.106449	822.0
1146.662178	813.7999878
1147.217849	812.4000244
1147.773464	813.5999756
1148.329021	816.4000244
1148.884521	811.7999878
1149.439965	816.2000122
1149.995351	809.7999878
1150.55068	813.4000244
1151.105953	816.7999878
1151.661168	819.5999756
1152.216326	810.7999878
1152.771428	820.4000244
1153.326472	813.0
1153.88146	819.0
1154.43639	816.7999878
1154.991263	817.2000122
1155.54608	815.7999878
1156.100839	820.4000244
1156.655542	816.5999756
1157.210188	815.7999878
1157.764776	817.7999878
1158.319308	816.5999756
1158.873783	815.0
1159.428201	816.7999878
1159.982561	815.7999878
1160.536865	814.4000244
1161.091112	813.7999878
1161.645302	822.5999756
1162.199436	812.7999878
1162.753512	819.0
1163.307531	819.2000122
1163.861494	812.2000122
1164.415399	818.7999878
1164.969248	811.5999756
1165.523039	812.2000122
1166.076774	816.0
1166.630452	819.0
1167.184073	813.7999878
1167.737637	815.4000244
1168.291144	818.7999878
1168.844595	820.2000122
1169.397988	817.4000244
1169.951325	813.0
1170.504605	811.7999878
1171.057828	814.0
1171.610994	811.4000244
1172.164103	808.2000122
1172.717155	810.0
1173.270151	808.7999878
1173.823089	819.2000122
1174.375971	817.0
1174.928796	809.2000122
1175.481564	810.4000244
1176.034276	822.0
1176.58693	823.2000122
1177.139528	808.5999756
1177.692069	812.2000122
1178.244553	816.5999756
1178.79698	818.7999878
1179.34935	812.7999878
1179.901664	815.5999756
1180.453921	816.0
1181.006121	817.7999878
1181.558264	816.7999878
1182.110351	811.5999756
1182.66238	813.2000122
1183.214353	818.2000122
1183.76627	810.5999756
1184.318129	807.4000244
1184.869932	813.4000244
1185.421677	813.7999878
1185.973367	810.7999878
1186.524999	815.7999878
1187.076574	811.7999878
1187.628093	814.7999878
1188.179555	821.2000122
1188.730961	815.7999878
1189.282309	805.2000122
1189.833601	813.5999756
1190.384837	819.2000122
1190.936015	814.4000244
1191.487137	819.5999756
1192.038202	812.7999878
1192.58921	822.2000122
1193.140162	808.7999878
1193.691057	813.0
1194.241895	817.2000122
1194.792676	817.7999878
1195.343401	811.4000244
1195.894069	818.5999756
1196.444681	815.5999756
1196.995235	807.4000244
1197.545733	813.4000244
1198.096175	811.0
1198.646559	816.5999756
1199.196887	808.2000122
1199.747159	810.7999878
1200.297374	811.7999878
1200.847532	817.0
1201.397633	809.7999878
1201.947678	815.5999756
1202.497666	814.0
1203.047598	809.5999756
1203.597472	809.4000244
1204.147291	816.7999878
1204.697052	808.0
1205.246757	814.2000122
1205.796406	808.5999756
1206.345997	811.2000122
1206.895532	811.7999878
1207.445011	813.4000244
1207.994433	814.0
1208.543798	803.7999878
1209.093107	815.2000122
1209.642359	809.4000244
1210.191554	808.2000122
1210.740693	809.0
1211.289776	806.0
1211.838801	808.7999878
1212.387771	809.4000244
1212.936683	802.7999878
1213.485539	809.7999878
1214.034339	815.2000122
1214.583082	811.0
1215.131768	809.0
1215.680398	811.2000122
1216.228971	806.7999878
1216.777488	807.5999756
1217.325948	812.2000122
1217.874352	814.7999878
1218.422699	812.2000122
1218.970989	806.0
1219.519223	813.0
1220.067401	810.5999756
1220.615522	805.4000244
1221.163586	802.5999756
1221.711594	806.0
1222.259546	806.2000122
1222.807441	805.7999878
1223.355279	804.5999756
1223.903061	806.0
1224.450787	807.0
1224.998455	806.5999756
1225.546068	800.7999878
1226.093624	805.2000122
1226.641123	815.4000244
1227.188567	807.4000244
1227.735953	813.7999878
1228.283283	805.0
1228.830557	809.7999878
1229.377774	805.7999878
1229.924935	807.5999756
1230.472039	808.0
1231.019087	808.4000244
1231.566078	810.2000122
1232.113013	800.2000122
1232.659892	807.5999756
1233.206714	806.4000244
1233.753479	803.0
1234.300188	804.4000244
1234.846841	812.4000244
1235.393438	811.0
1235.939978	810.0
1236.486461	802.5999756
1237.032888	807.7999878
1237.579259	800.7999878
1238.125573	802.2000122
1238.671831	806.7999878
1239.218033	805.0
1239.764178	815.4000244
1240.310267	808.7999878
1240.856299	804.5999756
1241.402275	804.0
1241.948194	806.5999756
1242.494058	809.0
1243.039865	809.4000244
1243.585615	805.4000244
1244.131309	804.5999756
1244.676947	810.4000244
1245.222528	804.0
1245.768053	802.4000244
1246.313522	801.2000122
1246.858935	801.0
1247.404291	808.4000244
1247.94959	804.2000122
1248.494834	799.7999878
1249.040021	805.0
1249.585152	807.5999756
1250.130226	805.4000244
1250.675244	809.7999878
1251.220206	810.7999878
1251.765111	807.2000122
1252.30996	809.4000244
1252.854753	808.7999878
1253.39949	806.5999756
1253.94417	802.5999756
1254.488794	802.7999878
1255.033362	811.5999756
1255.577873	805.2000122
1256.122328	806.5999756
1256.666727	806.0
1257.21107	802.5999756
1257.755356	796.0
1258.299586	806.7999878
1258.84376	796.5999756
1259.387877	807.5999756
1259.931939	807.0
1260.475944	801.2000122
1261.019892	802.4000244
1261.563785	801.2000122
1262.107621	804.5999756
1262.651401	806.5999756
1263.195125	808.5999756
1263.738793	801.4000244
1264.282404	798.4000244
1264.825959	796.0
1265.369458	801.5999756
1265.912901	810.4000244
1266.456287	807.5999756
1266.999618	805.0
1267.542892	801.5999756
1268.08611	803.7999878
1268.629271	801.0
1269.172377	802.2000122
1269.715426	798.7999878
1270.258419	801.2000122
1270.801356	804.7999878
1271.344237	805.0
1271.887061	795.4000244
1272.42983	805.4000244
1272.972542	794.0
1273.515198	796.2000122
1274.057798	794.0
1274.600342	798.5999756
1275.142829	801.4000244
1275.685261	795.2000122
1276.227636	798.5999756
1276.769955	800.4000244
1277.312218	802.2000122
1277.854425	808.4000244
1278.396576	800.5999756
1278.93867	800.5999756
1279.480709	803.2000122
1280.022691	803.4000244
1280.564618	806.0
1281.106488	801.7999878
1281.648302	798.4000244
1282.19006	800.0
1282.731761	800.5999756
1283.273407	801.4000244
1283.814997	800.2000122
1284.35653	792.2000122
1284.898008	801.0
1285.439429	822.0
1285.980794	859.0
1286.522104	820.7999878
1287.063357	804.7999878
1287.604554	796.2000122
1288.145695	796.0
1288.68678	804.4000244
1289.227808	796.4000244
1289.768781	805.4000244
1290.309698	803.4000244
1290.850559	795.2000122
1291.391363	797.4000244
1291.932112	796.7999878
1292.472804	793.2000122
1293.013441	803.7999878
1293.554022	796.0
1294.094546	798.7999878
1294.635014	798.0
1295.175427	806.0
1295.715783	797.5999756
1296.256084	793.2000122
1296.796328	802.7999878
1297.336516	801.2000122
1297.876649	802.5999756
1298.416725	794.5999756
1298.956745	793.4000244
1299.49671	802.0
1300.036618	800.0
1300.576471	800.5999756
1301.116267	790.7999878
1301.656007	797.5999756
1302.195692	800.2000122
1302.73532	796.4000244
1303.274893	800.5999756
1303.81441	801.5999756
1304.35387	799.7999878
1304.893275	798.2000122
1305.432623	792.2000122
1305.971916	797.5999756
1306.511153	798.7999878
1307.050334	791.4000244
1307.589459	797.0
1308.128528	799.0
1308.667541	797.7999878
1309.206498	799.2000122
1309.745399	796.0
1310.284244	795.2000122
1310.823033	803.5999756
1311.361767	799.5999756
1311.900444	792.5999756
1312.439066	799.5999756
1312.977632	797.2000122
1313.516141	795.4000244
1314.054595	795.0
1314.592993	801.5999756
1315.131335	796.5999756
1315.669622	790.2000122
1316.207852	799.4000244
1316.746026	792.2000122
1317.284145	794.2000122
1317.822208	791.7999878
1318.360215	798.2000122
1318.898166	797.7999878
1319.436061	794.7999878
1319.9739	795.0
1320.511683	792.4000244
1321.049411	795.0
1321.587082	792.4000244
1322.124698	796.4000244
1322.662258	790.4000244
1323.199762	792.0
1323.737211	789.7999878
1324.274603	795.7999878
1324.81194	790.0
1325.349221	792.4000244
1325.886446	799.2000122
1326.423615	792.2000122
1326.960728	786.7999878
1327.497786	787.0
1328.034788	797.4000244
1328.571734	799.2000122
1329.108624	792.2000122
1329.645458	795.7999878
1330.182237	794.5999756
1330.718959	794.5999756
1331.255626	793.4000244
1331.792238	793.0
1332.328793	796.5999756
1332.865293	789.0
1333.401737	794.0
1333.938125	794.5999756
1334.474457	797.5999756
1335.010734	787.5999756
1335.546954	793.0
1336.083119	791.7999878
1336.619229	793.7999878
1337.155282	791.7999878
1337.69128	794.4000244
1338.227222	787.2000122
1338.763109	785.7999878
1339.298939	790.4000244
1339.834714	791.0
1340.370433	792.7999878
1340.906097	793.2000122
1341.441704	789.2000122
1341.977256	788.0
1342.512752	793.7999878
1343.048193	793.2000122
1343.583578	790.2000122
1344.118907	787.5999756
1344.65418	790.4000244
1345.189398	793.7999878
1345.72456	790.5999756
1346.259667	788.0
1346.794717	791.4000244
1347.329712	787.0
1347.864652	790.4000244
1348.399535	791.2000122
1348.934363	795.4000244
1349.469135	789.4000244
1350.003852	792.5999756
1350.538513	792.7999878
1351.073118	788.5999756
1351.607668	791.5999756
1352.142162	793.2000122
1352.6766	793.2000122
1353.210983	791.0
1353.74531	790.5999756
1354.279582	796.5999756
1354.813797	794.2000122
1355.347957	786.5999756
1355.882062	796.2000122
1356.416111	790.7999878
1356.950104	789.0
1357.484042	788.5999756
1358.017924	788.2000122
1358.55175	795.2000122
1359.085521	787.4000244
1359.619236	793.4000244
1360.152896	793.4000244
1360.6865	786.5999756
1361.220048	790.2000122
1361.753541	794.2000122
1362.286978	791.5999756
1362.82036	794.5999756
1363.353686	792.4000244
1363.886957	788.7999878
1364.420172	792.4000244
1364.953331	787.4000244
1365.486435	789.5999756
1366.019483	789.4000244
1366.552476	788.7999878
1367.085413	793.7999878
1367.618294	789.0
1368.15112	791.7999878
1368.683891	789.0
1369.216606	789.7999878
1369.749265	790.7999878
1370.281869	790.7999878
1370.814417	786.7999878
1371.34691	790.0
1371.879347	792.7999878
1372.411729	795.7999878
1372.944055	795.2000122
1373.476326	792.7999878
1374.008541	787.4000244
1374.540701	793.4000244
1375.072805	787.5999756
1375.604854	788.0
1376.136847	787.4000244
1376.668784	793.2000122
1377.200667	786.7999878
1377.732493	788.5999756
1378.264265	792.5999756
1378.79598	787.7999878
1379.32764	791.2000122
1379.859245	788.2000122
1380.390795	781.7999878
1380.922288	786.5999756
1381.453727	790.4000244
1381.98511	791.2000122
1382.516437	786.7999878
1383.047709	788.4000244
1383.578926	785.4000244
1384.110087	783.2000122
1384.641192	787.7999878
1385.172242	788.7999878
1385.703237	787.0
1386.234177	786.5999756
1386.76506	796.2000122
1387.295889	794.0
1387.826662	793.0
1388.357379	803.0
1388.888042	872.4000244
1389.418648	846.0
1389.9492	802.0
1390.479696	788.5999756
1391.010136	792.4000244
1391.540521	786.7999878
1392.070851	792.4000244
1392.601126	790.4000244
1393.131344	787.4000244
1393.661508	790.5999756
1394.191616	788.5999756
1394.721669	786.4000244
1395.251666	783.4000244
1395.781609	786.7999878
1396.311495	786.5999756
1396.841327	789.5999756
1397.371102	787.5999756
1397.900823	787.7999878
1398.430488	787.4000244
1398.960098	790.5999756
1399.489653	782.5999756
1400.019152	783.5999756
1400.548596	780.7999878
1401.077984	786.7999878
1401.607317	786.2000122
1402.136595	793.7999878
1402.665818	789.0
1403.194985	784.2000122
1403.724097	785.0
1404.253153	785.0
1404.782154	787.4000244
1405.3111	785.5999756
1405.839991	782.4000244
1406.368826	778.4000244
1406.897606	783.2000122
1407.426331	784.4000244
1407.955	787.2000122
1408.483614	786.7999878
1409.012173	787.4000244
1409.540676	781.4000244
1410.069124	791.4000244
1410.597517	807.2000122
1411.125855	787.2000122
1411.654137	785.2000122
1412.182364	785.2000122
1412.710536	782.5999756
1413.238653	787.4000244
1413.766714	786.4000244
1414.29472	784.2000122
1414.822671	790.2000122
1415.350566	785.7999878
1415.878407	781.5999756
1416.406192	783.2000122
1416.933921	785.7999878
1417.461596	789.5999756
1417.989215	790.4000244
1418.516779	781.7999878
1419.044288	781.7999878
1419.571742	792.2000122
1420.09914	788.2000122
1420.626483	789.4000244
1421.153771	784.5999756
1421.681004	786.2000122
1422.208182	780.2000122
1422.735304	786.7999878
1423.262371	788.4000244
1423.789383	784.5999756
1424.31634	780.5999756
1424.843241	784.5999756
1425.370088	782.7999878
1425.896879	786.0
1426.423615	786.2000122
1426.950296	779.7999878
1427.476921	782.0
1428.003492	782.4000244
1428.530007	786.7999878
1429.056467	785.7999878
1429.582872	783.4000244
1430.109222	779.5999756
1430.635517	783.0
1431.161756	790.2000122
1431.687941	786.2000122
1432.21407	781.2000122
1432.740144	786.7999878
1434.318035	778.5999756
1434.843889	779.2000122
1435.369687	785.7999878
1435.895431	776.7999878
1436.421119	779.0
1436.946752	786.0
1437.47233	793.5999756
1437.997853	787.2000122
1438.52332	781.2000122
1439.048733	779.7999878
1439.57409	776.2000122
1440.099393	780.4000244
1440.62464	782.5999756
1441.149832	784.7999878
1441.67497	783.7999878
1442.200052	778.4000244
1442.725079	790.2000122
1443.250051	787.5999756
1443.774967	776.5999756
1444.299829	783.4000244
1444.824636	783.7999878
1445.349388	783.5999756
1445.874084	778.7999878
1446.398726	785.5999756
1446.923312	780.4000244
1447.447844	783.5999756
1447.97232	785.2000122
1448.496741	785.0
1449.021108	779.2000122
1449.545419	783.4000244
1450.069675	781.0
1450.593876	774.5999756
1451.118022	786.7999878
1451.642114	778.7999878
1452.16615	775.5999756
1452.690131	777.4000244
1453.214057	777.4000244
1453.737928	776.0
1454.261744	782.0
1454.785505	774.5999756
1455.309211	780.7999878
1455.832862	772.5999756
1456.356458	776.0
1456.879999	778.5999756
1457.403485	780.0
1457.926917	778.2000122
1458.450293	777.5999756
1458.973614	776.4000244
1459.49688	779.2000122
1460.020091	779.4000244
1460.543247	771.4000244
1461.066349	772.2000122
1461.589395	773.2000122
1462.112386	778.7999878
1462.635323	778.4000244
1463.158204	774.2000122
1463.681031	778.4000244
1464.203802	775.7999878
1464.726519	776.2000122
1465.249181	778.2000122
1465.771787	776.4000244
1466.294339	776.2000122
1466.816836	779.7999878
1467.339278	769.7999878
1467.861665	778.5999756
1468.383997	780.5999756
1468.906274	772.5999756
1469.428496	779.0
1469.950664	777.4000244
1470.472776	773.5999756
1470.994834	777.0
1471.516837	777.4000244
1472.038784	772.2000122
1472.560677	774.0
1473.082515	772.4000244
1473.604298	773.0
1474.126026	777.4000244
1474.6477	775.2000122
1475.169318	780.4000244
1475.690882	776.4000244
1476.212391	774.0
1476.733844	783.5999756
1477.255243	777.7999878
1477.776588	770.5999756
1478.297877	776.4000244
1478.819111	774.4000244
1479.340291	781.0
1479.861416	775.7999878
1480.382485	772.5999756
1480.9035	777.2000122
1481.424461	780.2000122
1481.945366	776.2000122
1482.466217	779.7999878
1482.987012	775.2000122
1483.507753	772.0
1484.028439	773.5999756
1484.54907	771.0
1485.069647	772.7999878
1485.590168	775.0
1486.110635	775.0
1486.631047	774.4000244
1487.151404	776.7999878
1487.671707	771.4000244
1488.191955	775.5999756
1488.712147	773.5999756
1489.232285	772.4000244
1489.752369	779.2000122
1490.272397	776.4000244
1490.792371	770.4000244
1491.31229	778.7999878
1491.832154	774.2000122
1492.351963	773.4000244
1492.871718	776.5999756
1493.391418	773.2000122
1493.911063	773.7999878
1494.430653	775.2000122
1494.950189	782.2000122
1495.46967	769.4000244
1495.989096	770.7999878
1496.508467	772.4000244
1497.027784	776.4000244
1497.547045	773.2000122
1498.066253	775.0
1498.585405	773.2000122
1499.104503	774.2000122
1499.623546	781.0
1500.142534	775.4000244
1500.661467	773.4000244
1501.180346	782.2000122
1501.69917	775.7999878
1502.21794	772.4000244
1502.736654	772.4000244
1503.255314	768.5999756
1503.77392	769.2000122
1504.29247	775.4000244
1504.810966	773.0
1505.329408	775.0
1505.847794	774.5999756
1506.366126	774.7999878
1506.884403	773.4000244
1507.402626	771.2000122
1507.920794	770.7999878
1508.438907	771.5999756
1508.956965	767.7999878
1509.474969	767.5999756
1509.992918	766.5999756
1510.510813	769.0
1511.028653	775.0
1511.546438	770.2000122
1512.064169	767.5999756
1512.581845	773.2000122
1513.099466	768.5999756
1513.617033	776.5999756
1514.134545	771.2000122
1514.652002	777.0
1515.169405	775.5999756
1515.686753	775.0
1516.204047	768.0
1516.721286	775.4000244
1517.23847	775.2000122
1517.7556	772.4000244
1518.272675	773.4000244
1518.789695	766.5999756
1519.306661	771.4000244
1519.823573	767.0
1520.340429	763.5999756
1520.857232	768.0
1521.373979	766.4000244
1521.890672	771.7999878
1522.407311	765.7999878
1522.923895	775.0
1523.440424	774.4000244
1523.956899	769.2000122
1524.473319	765.5999756
1524.989684	772.5999756
1525.505995	770.4000244
1526.022252	770.2000122
1526.538454	773.4000244
1527.054601	774.4000244
1527.570694	768.5999756
1528.086732	769.7999878
1528.602716	770.0
1529.118645	765.2000122
1529.63452	771.5999756
1530.15034	768.4000244
1530.666106	765.5999756
1531.181817	764.2000122
1531.697473	768.4000244
1532.213075	774.7999878
1532.728623	766.2000122
1533.244116	765.4000244
1533.759554	763.2000122
1534.274938	770.2000122
1534.790268	768.0
1535.305543	771.0
1535.820764	774.0
1536.33593	771.4000244
1536.851041	768.7999878
1537.366098	767.2000122
1537.881101	778.7999878
1538.396049	762.7999878
1538.910943	768.5999756
1539.425782	768.2000122
1539.940567	769.5999756
1540.455297	766.4000244
1540.969973	774.5999756
1541.484594	770.0
1541.999161	770.0
1542.513673	772.4000244
1543.028131	769.7999878
1543.542535	765.7999878
1544.056884	764.0
1544.571179	769.4000244
1545.085419	766.2000122
1545.599605	765.2000122
1546.113736	770.2000122
1546.627813	768.7999878
1547.141836	771.2000122
1547.655804	767.5999756
1548.169718	767.0
1548.683577	769.7999878
1549.197382	764.0
1549.711132	771.2000122
1550.224829	766.5999756
1550.73847	769.4000244
1551.252058	770.0
1551.76559	770.7999878
1552.279069	760.0
1552.792493	776.7999878
1553.305863	768.0
1553.819178	772.0
1554.332439	764.5999756
1554.845646	765.5999756
1555.358798	769.7999878
1555.871896	770.5999756
1556.38494	765.5999756
1556.897929	767.0
1557.410864	770.5999756
1557.923744	763.2000122
1558.436571	767.7999878
1558.949342	767.7999878
1559.46206	760.0
1559.974723	767.0
1560.487332	763.4000244
1560.999886	772.7999878
1561.512386	767.7999878
1562.024832	771.7999878
1562.537224	769.5999756
1563.049561	765.4000244
1563.561844	767.4000244
1564.074072	770.4000244
1564.586247	769.4000244
1565.098367	765.7999878
1565.610432	769.0
1566.122444	765.4000244
1566.634401	768.4000244
1567.146304	765.7999878
1567.658152	764.7999878
1568.169946	763.4000244
1568.681686	768.0
1569.193372	766.4000244
1569.705003	768.0
1570.21658	765.2000122
1570.728103	766.5999756
1571.239572	767.5999756
1571.750986	764.2000122
1572.262346	765.7999878
1572.773652	762.0
1573.284904	766.7999878
1573.796101	765.4000244
1574.307244	767.4000244
1574.818333	771.4000244
1575.329367	762.7999878
1575.840348	763.4000244
1576.351274	757.5999756
1576.862146	768.4000244
1577.372964	767.0
1577.883727	763.4000244
1578.394436	761.7999878
1578.905091	760.2000122
1579.415692	764.5999756
1579.926239	767.2000122
1580.436731	760.4000244
1580.947169	761.0
1581.457553	764.4000244
1581.967883	765.2000122
1582.478159	765.2000122
1582.98838	764.5999756
1583.498548	770.0
1584.008661	762.5999756
1584.51872	758.5999756
1585.028725	761.0
1585.538675	762.7999878
1586.048572	760.0
1586.558414	758.5999756
1587.068202	758.5999756
1587.577936	764.7999878
