1037.211545	688.5999756
1037.778412	689.7999878
1038.345221	687.0
1038.911973	687.4000244
1039.478666	683.5999756
1040.045302	681.7999878
1040.61188	683.5999756
1041.178401	682.2000122
1041.744863	686.4000244
1042.311268	683.7999878
1042.877615	678.0
1043.443905	682.7999878
1044.010136	683.0
1044.57631	686.5999756
1045.142426	686.5999756
1045.708484	683.0
1046.274485	684.0
1046.840427	679.4000244
1047.406312	680.4000244
1047.97214	679.7999878
1048.537909	677.5999756
1049.103621	679.2000122
1049.669275	680.4000244
1050.234871	680.2000122
1050.80041	681.4000244
1051.365891	675.4000244
1051.931314	678.5999756
1052.49668	679.4000244
1053.061988	679.7999878
1053.627238	679.2000122
1054.19243	677.4000244
1054.757565	675.4000244
1055.322642	676.5999756
1055.887661	677.2000122
1056.452623	675.2000122
1057.017527	677.2000122
1057.582374	677.5999756
1058.147162	673.7999878
1058.711893	676.2000122
1059.276567	674.5999756
1059.841183	676.4000244
1060.405741	674.0
1060.970241	676.0
1061.534684	675.4000244
1062.099069	674.2000122
1062.663397	675.2000122
1063.227667	674.0
1063.791879	674.0
1064.356034	670.5999756
1064.920131	680.2000122
1065.48417	673.5999756
1066.048152	673.5999756
1066.612076	672.5999756
1067.175943	670.5999756
1067.739752	672.4000244
1068.303504	672.7999878
1068.867197	671.4000244
1069.430834	673.2000122
1069.994413	672.7999878
1070.557934	675.0
1071.121397	673.0
1071.684803	673.2000122
1072.248152	674.5999756
1072.811443	674.4000244
1073.374676	672.5999756
1073.937852	671.5999756
1074.50097	674.7999878
1075.064031	674.5999756
1075.627034	672.4000244
1076.18998	672.0
1076.752868	673.0
1077.315698	674.2000122
1077.878471	671.5999756
1078.441187	672.7999878
1079.003845	672.7999878
1079.566446	671.0
1080.128989	672.5999756
1080.691474	672.4000244
1081.253902	674.2000122
1081.816273	674.5999756
1082.378586	672.4000244
1082.940841	671.5999756
1083.503039	673.5999756
1084.06518	676.5999756
1084.627263	674.5999756
1085.189289	671.7999878
1085.751257	675.0
1086.313168	675.0
1086.875021	673.7999878
1087.436817	677.7999878
1087.998555	675.0
1088.560236	671.0
1089.12186	672.7999878
1089.683426	674.0
1090.244934	677.4000244
1090.806386	674.0
1091.367779	676.2000122
1091.929116	678.7999878
1092.490395	671.2000122
1093.051616	672.7999878
1093.61278	670.7999878
1094.173887	675.4000244
1094.734936	673.5999756
1095.295928	672.5999756
1095.856863	673.4000244
1096.41774	671.0
1096.97856	672.7999878
1097.539322	672.5999756
1098.100027	670.2000122
1098.660675	670.4000244
1099.221265	672.5999756
1099.781798	671.4000244
1100.342274	673.4000244
1100.902692	675.4000244
1101.463053	670.4000244
1102.023356	672.5999756
1102.583602	672.2000122
1103.143791	671.4000244
1103.703922	671.2000122
1104.263996	671.4000244
1104.824013	669.7999878
1105.383973	675.0
1105.943875	676.0
1106.50372	670.5999756
1107.063507	675.4000244
1107.623237	676.0
1108.18291	675.2000122
1108.742526	674.5999756
1109.302084	674.5999756
1109.861585	673.5999756
1110.421029	672.0
1110.980416	676.5999756
1111.539745	670.4000244
1112.099017	674.4000244
1112.658231	671.4000244
1113.217389	673.7999878
1113.776489	673.7999878
1114.335531	675.0
1114.894517	671.4000244
1115.453445	673.0
1116.012316	672.7999878
1116.57113	670.4000244
1117.129887	672.0
1117.688586	672.7999878
1118.247228	673.4000244
1118.805813	672.2000122
1119.364341	673.4000244
1119.922811	675.4000244
1120.481224	677.0
1121.03958	672.2000122
1121.597879	674.5999756
1122.156121	674.0
1122.714305	673.0
1123.272432	671.7999878
1123.830502	671.2000122
1124.388515	671.4000244
1124.946471	674.0
1125.504369	673.7999878
1126.062211	675.5999756
1126.619995	676.2000122
1127.177722	674.2000122
1127.735391	673.0
1128.293004	673.5999756
1128.850559	672.0
1129.408058	673.5999756
1129.965499	673.0
1130.522883	674.4000244
1131.08021	671.2000122
1131.637479	672.4000244
1132.194692	675.4000244
1132.751847	673.4000244
1133.308946	672.5999756
1133.865987	677.4000244
1134.422971	677.2000122
1134.979898	674.4000244
1135.536768	674.0
1136.09358	672.4000244
1136.650336	672.0
1137.207035	675.2000122
1137.763676	677.0
1138.32026	675.2000122
1138.876788	674.0
1139.433258	675.2000122
1139.989671	674.7999878
1140.546027	674.5999756
1141.102326	675.0
1141.658568	674.4000244
1142.214753	674.4000244
1142.770881	675.2000122
1143.326951	674.2000122
1143.882965	675.0
1144.438922	676.5999756
1144.994821	677.2000122
1145.550664	675.0
1146.106449	674.4000244
1146.662178	676.0
1147.217849	676.4000244
1147.773464	675.5999756
1148.329021	675.2000122
1148.884521	675.7999878
1149.439965	677.0
1149.995351	674.5999756
1150.55068	681.4000244
1151.105953	681.5999756
1151.661168	676.7999878
1152.216326	672.2000122
1152.771428	673.5999756
1153.326472	675.2000122
1153.88146	674.0
1154.43639	676.5999756
1154.991263	673.2000122
1155.54608	674.4000244
1156.100839	677.0
1156.655542	673.2000122
1157.210188	675.4000244
1157.764776	675.7999878
1158.319308	673.2000122
1158.873783	675.2000122
1159.428201	675.4000244
1159.982561	671.4000244
1160.536865	675.7999878
1161.091112	676.0
1161.645302	672.4000244
1162.199436	672.7999878
1162.753512	675.2000122
1163.307531	673.2000122
1163.861494	674.0
1164.415399	676.0
1164.969248	674.2000122
1165.523039	673.2000122
1166.076774	674.4000244
1166.630452	676.4000244
1167.184073	673.5999756
1167.737637	672.4000244
1168.291144	670.7999878
1168.844595	674.4000244
1169.397988	675.7999878
1169.951325	675.5999756
1170.504605	674.5999756
1171.057828	675.2000122
1171.610994	673.7999878
1172.164103	674.4000244
1172.717155	674.0
1173.270151	673.5999756
1173.823089	674.7999878
1174.375971	673.5999756
1174.928796	674.7999878
1175.481564	676.4000244
1176.034276	674.5999756
1176.58693	676.4000244
1177.139528	673.5999756
1177.692069	676.2000122
1178.244553	671.2000122
1178.79698	672.2000122
1179.34935	675.2000122
1179.901664	679.2000122
1180.453921	671.2000122
1181.006121	675.4000244
1181.558264	671.7999878
1182.110351	673.5999756
1182.66238	675.2000122
1183.214353	675.5999756
1183.76627	674.0
1184.318129	674.2000122
1184.869932	674.4000244
1185.421677	675.4000244
1185.973367	674.4000244
1186.524999	677.0
1187.076574	674.0
1187.628093	674.5999756
1188.730961	672.2000122
1189.282309	674.4000244
1189.833601	676.2000122
1190.384837	678.4000244
1190.936015	676.4000244
1191.487137	678.0
1192.038202	676.4000244
1192.58921	670.4000244
1193.140162	672.2000122
1193.691057	675.2000122
1194.241895	673.0
1194.792676	674.4000244
1195.343401	673.2000122
1195.894069	674.2000122
1196.444681	673.2000122
1196.995235	676.7999878
1197.545733	677.5999756
1198.096175	676.0
1198.646559	679.5999756
1199.196887	675.7999878
1199.747159	674.0
1200.297374	671.7999878
1200.847532	677.2000122
1201.397633	677.0
1201.947678	679.7999878
1202.497666	677.5999756
1203.047598	673.7999878
1203.597472	676.0
1204.147291	675.2000122
1204.697052	677.5999756
1205.246757	675.0
1205.796406	676.0
1206.345997	676.5999756
1206.895532	679.2000122
1207.445011	678.2000122
1207.994433	676.4000244
1208.543798	675.5999756
1209.093107	675.0
1209.642359	676.5999756
1210.191554	678.5999756
1210.740693	678.0
1211.289776	678.7999878
1211.838801	674.0
1212.387771	674.7999878
1212.936683	676.2000122
1213.485539	675.0
1214.034339	678.4000244
1214.583082	680.0
1215.131768	682.4000244
1215.680398	678.5999756
1216.228971	676.2000122
1216.777488	675.7999878
1217.325948	676.5999756
1217.874352	679.7999878
1218.422699	676.7999878
1218.970989	680.0
1219.519223	677.5999756
1220.067401	676.2000122
1220.615522	678.5999756
1221.163586	677.0
1221.711594	679.5999756
1222.259546	677.0
1222.807441	676.4000244
1223.355279	676.5999756
1223.903061	676.2000122
1224.450787	678.5999756
1224.998455	676.7999878
1225.546068	679.7999878
1226.093624	678.2000122
1226.641123	681.4000244
1227.188567	678.5999756
1227.735953	678.4000244
1228.283283	679.5999756
1228.830557	675.7999878
1229.377774	680.0
1229.924935	677.4000244
1230.472039	677.4000244
1231.019087	676.0
1231.566078	677.5999756
1232.113013	677.5999756
1232.659892	677.5999756
1233.206714	679.2000122
1233.753479	675.7999878
1234.300188	676.4000244
1234.846841	676.5999756
1235.393438	681.0
1235.939978	679.2000122
1236.486461	675.2000122
1237.032888	675.4000244
1237.579259	678.2000122
1238.125573	673.5999756
1238.671831	677.7999878
1239.218033	676.0
1239.764178	677.5999756
1240.310267	677.2000122
1240.856299	677.2000122
1241.402275	679.4000244
1241.948194	679.0
1242.494058	676.2000122
1243.039865	679.2000122
1243.585615	680.0
1244.131309	679.0
1244.676947	680.0
1245.222528	678.4000244
1245.768053	677.2000122
1246.313522	677.0
1246.858935	679.2000122
1247.404291	673.4000244
1247.94959	676.7999878
1248.494834	679.4000244
1249.040021	676.7999878
1249.585152	674.0
1250.130226	680.5999756
1250.675244	678.7999878
1251.220206	678.0
1251.765111	675.5999756
1252.30996	677.7999878
1252.854753	679.0
1253.39949	678.0
1253.94417	676.7999878
1254.488794	679.2000122
1255.033362	685.7999878
1255.577873	677.4000244
1256.122328	675.2000122
1256.666727	675.7999878
1257.21107	676.4000244
1257.755356	677.5999756
1258.299586	676.2000122
1258.84376	679.5999756
1259.387877	679.2000122
1259.931939	680.4000244
1260.475944	677.0
1261.019892	675.5999756
1261.563785	676.7999878
1262.107621	673.7999878
1262.651401	680.5999756
1263.195125	684.0
1263.738793	683.7999878
1264.282404	684.5999756
1264.825959	704.0
1265.369458	742.5999756
1265.912901	727.4000244
1266.456287	692.4000244
1266.999618	681.5999756
1267.542892	679.4000244
1268.08611	679.0
1268.629271	677.7999878
1269.172377	679.5999756
1269.715426	678.2000122
1270.258419	675.0
1270.801356	674.5999756
1271.344237	673.7999878
1271.887061	675.0
1272.42983	677.0
1272.972542	673.7999878
1273.515198	675.0
1274.057798	673.5999756
1274.600342	675.7999878
1275.142829	673.0
1275.685261	676.2000122
1276.227636	674.4000244
1276.769955	674.2000122
1277.312218	675.2000122
1277.854425	672.2000122
1278.396576	678.0
1278.93867	673.5999756
1279.480709	677.2000122
1280.022691	675.0
1280.564618	677.5999756
1281.106488	674.7999878
1281.648302	676.4000244
1282.19006	680.4000244
1282.731761	683.5999756
1283.273407	688.4000244
1283.814997	696.7999878
1284.35653	712.0
1284.898008	811.2000122
1285.439429	1308.400024
1285.980794	1540.199951
1286.522104	907.2000122
1287.063357	728.4000244
1287.604554	697.7999878
1288.145695	688.2000122
1288.68678	682.5999756
1289.227808	680.4000244
1289.768781	677.4000244
1290.309698	678.4000244
1290.850559	675.0
1291.391363	674.4000244
1291.932112	675.0
1292.472804	674.2000122
1293.013441	675.4000244
1293.554022	675.0
1294.094546	673.2000122
1294.635014	670.7999878
1295.175427	675.7999878
1295.715783	675.2000122
1296.256084	672.2000122
1296.796328	674.5999756
1297.336516	674.0
1297.876649	673.5999756
1298.416725	675.4000244
1298.956745	672.0
1299.49671	674.2000122
1300.036618	674.4000244
1300.576471	673.0
1301.116267	673.4000244
1301.656007	672.4000244
1302.195692	671.4000244
1302.73532	674.5999756
1303.274893	674.7999878
1303.81441	672.4000244
1304.35387	676.7999878
1304.893275	675.4000244
1305.432623	673.5999756
1305.971916	674.5999756
1306.511153	672.7999878
1307.050334	671.0
1307.589459	673.5999756
1308.128528	673.4000244
1308.667541	673.4000244
1309.206498	673.5999756
1309.745399	676.7999878
1310.284244	672.0
1310.823033	673.5999756
1311.361767	672.2000122
1311.900444	675.4000244
1312.439066	673.0
1312.977632	673.0
1313.516141	671.5999756
1314.054595	673.0
1314.592993	673.2000122
1315.131335	673.7999878
1315.669622	674.5999756
1316.207852	674.2000122
1316.746026	673.2000122
1317.284145	673.7999878
1317.822208	672.4000244
1318.360215	672.5999756
1318.898166	676.4000244
1319.436061	672.5999756
1319.9739	673.0
1320.511683	672.7999878
1321.049411	673.4000244
1321.587082	672.0
1322.124698	672.5999756
1322.662258	671.5999756
1323.199762	672.2000122
1323.737211	676.0
1324.274603	674.4000244
1324.81194	673.0
1325.349221	673.2000122
1325.886446	674.0
1326.423615	674.2000122
1326.960728	671.5999756
1327.497786	671.0
1328.034788	673.0
1328.571734	675.0
1329.108624	676.0
1329.645458	675.2000122
1330.182237	671.2000122
1330.718959	670.4000244
1331.255626	672.5999756
1331.792238	672.2000122
1332.328793	672.2000122
1332.865293	673.5999756
1333.401737	672.7999878
1333.938125	674.5999756
1334.474457	670.4000244
1335.010734	672.0
1335.546954	673.7999878
1336.083119	675.2000122
1336.619229	672.4000244
1337.155282	671.0
1337.69128	674.5999756
1338.227222	675.0
1338.763109	676.0
1339.298939	672.5999756
1339.834714	671.2000122
1340.370433	672.0
1340.906097	671.4000244
1341.441704	676.2000122
1341.977256	673.7999878
1342.512752	672.2000122
1343.048193	671.0
1343.583578	674.0
1344.118907	672.5999756
1344.65418	673.5999756
1345.189398	672.4000244
1345.72456	675.2000122
1346.259667	673.2000122
1346.794717	671.7999878
1347.329712	670.4000244
1347.864652	674.7999878
1348.399535	673.5999756
1348.934363	674.4000244
1349.469135	672.5999756
1350.003852	671.4000244
1350.538513	675.2000122
1351.073118	673.2000122
1351.607668	672.2000122
1352.142162	674.0
1352.6766	674.2000122
1353.210983	670.2000122
1353.74531	674.7999878
1354.279582	674.4000244
1354.813797	672.7999878
1355.347957	672.4000244
1355.882062	674.2000122
1356.416111	671.2000122
1356.950104	676.4000244
1357.484042	674.5999756
1358.017924	677.2000122
1358.55175	674.2000122
1359.085521	673.5999756
1359.619236	668.7999878
1360.152896	676.4000244
1360.6865	673.2000122
1361.220048	675.4000244
1361.753541	671.4000244
1362.286978	674.5999756
1362.82036	676.0
1363.353686	672.5999756
1363.886957	674.7999878
1364.420172	673.4000244
1364.953331	672.4000244
1365.486435	672.5999756
1366.019483	674.7999878
1366.552476	677.4000244
1367.085413	676.4000244
1367.618294	675.4000244
1368.15112	671.5999756
1368.683891	672.5999756
1369.216606	675.7999878
1369.749265	675.0
1370.281869	691.0
1370.814417	692.0
1371.34691	678.5999756
1371.879347	673.2000122
1372.411729	671.7999878
1372.944055	674.2000122
1373.476326	672.0
1374.008541	670.0
1374.540701	673.7999878
1375.072805	672.2000122
1375.604854	673.2000122
1376.136847	672.4000244
1376.668784	675.0
1377.200667	677.0
1377.732493	676.5999756
1378.264265	674.7999878
1378.79598	673.4000244
1379.32764	671.4000244
1379.859245	673.7999878
1380.390795	672.0
1380.922288	673.7999878
1381.453727	674.2000122
1381.98511	674.5999756
1382.516437	675.4000244
1383.047709	676.2000122
1383.578926	677.0
1384.110087	677.4000244
1384.641192	679.2000122
1385.172242	681.0
1385.703237	680.5999756
1386.234177	690.2000122
1386.76506	694.5999756
1387.295889	710.0
1387.826662	759.2000122
1388.357379	1160.599976
1388.888042	2243.0
1389.418648	1418.0
1389.9492	784.2000122
1390.479696	709.0
1391.010136	691.7999878
1391.540521	687.5999756
1392.070851	683.2000122
1392.601126	677.0
1393.131344	679.2000122
1393.661508	676.2000122
1394.191616	681.2000122
1394.721669	674.4000244
1395.251666	673.7999878
1395.781609	676.7999878
1396.311495	677.4000244
1396.841327	673.2000122
1397.371102	674.2000122
1397.900823	671.5999756
1398.430488	674.5999756
1398.960098	675.4000244
1399.489653	673.0
1400.019152	677.0
1400.548596	676.4000244
1401.077984	674.4000244
1401.607317	672.2000122
1402.136595	674.0
1402.665818	672.2000122
1403.194985	672.2000122
1403.724097	678.7999878
1404.253153	676.5999756
1404.782154	670.2000122
1405.3111	675.2000122
1405.839991	674.7999878
1406.368826	675.7999878
1406.897606	673.0
1407.426331	675.2000122
1407.955	673.2000122
1408.483614	674.5999756
1409.012173	688.2000122
1409.540676	711.4000244
1410.069124	790.4000244
1410.597517	784.4000244
1411.125855	696.7999878
1411.654137	679.5999756
1412.182364	676.0
1412.710536	677.5999756
1413.238653	675.4000244
1413.766714	672.7999878
1414.29472	673.0
1414.822671	674.5999756
1415.350566	673.5999756
1415.878407	673.4000244
1416.406192	671.2000122
1416.933921	673.4000244
1417.461596	672.5999756
1417.989215	669.4000244
1418.516779	671.4000244
1419.044288	673.0
1419.571742	673.2000122
1420.09914	675.7999878
1420.626483	671.7999878
1421.153771	675.0
1421.681004	672.7999878
1422.208182	669.4000244
1422.735304	674.7999878
1423.262371	670.0
1423.789383	671.7999878
1424.31634	673.7999878
1424.843241	673.5999756
1425.370088	674.2000122
1425.896879	679.2000122
1426.423615	676.0
1426.950296	675.4000244
1427.476921	670.4000244
1428.003492	671.2000122
1428.530007	671.7999878
1429.056467	671.5999756
1429.582872	669.7999878
1430.109222	673.0
1430.635517	671.4000244
1431.161756	676.0
1431.687941	670.0
1432.21407	671.2000122
1432.740144	673.5999756
1433.266163	671.0
1433.792127	671.4000244
1434.318035	668.5999756
1434.843889	672.7999878
1435.369687	669.5999756
1435.895431	669.0
1436.421119	668.2000122
1436.946752	668.2000122
1437.47233	671.5999756
1437.997853	671.7999878
1438.52332	671.0
1439.048733	668.5999756
1439.57409	671.7999878
1440.099393	670.5999756
1440.62464	672.0
1441.149832	668.0
1441.67497	670.7999878
1442.200052	672.4000244
1442.725079	672.2000122
1443.250051	672.7999878
1443.774967	669.4000244
1444.299829	669.4000244
1444.824636	668.5999756
1445.349388	668.4000244
1445.874084	672.5999756
1446.398726	672.0
1446.923312	669.2000122
1447.447844	669.0
1447.97232	669.0
1448.496741	669.0
1449.021108	670.4000244
1449.545419	669.5999756
1450.069675	667.4000244
1450.593876	668.7999878
1451.118022	671.4000244
1451.642114	669.2000122
1452.16615	669.0
1452.690131	670.2000122
1453.214057	670.7999878
1453.737928	666.4000244
1454.261744	668.0
1454.785505	667.5999756
1455.309211	669.4000244
1455.832862	669.5999756
1456.356458	667.5999756
1456.879999	667.4000244
1457.403485	669.5999756
1457.926917	672.2000122
1458.450293	668.5999756
1458.973614	668.4000244
1459.49688	671.7999878
1460.020091	666.2000122
1460.543247	665.4000244
1461.066349	669.2000122
1461.589395	668.5999756
1462.112386	670.5999756
1462.635323	671.0
1463.158204	672.7999878
1463.681031	668.7999878
1464.203802	670.4000244
1464.726519	669.0
1465.249181	672.4000244
1465.771787	668.0
1466.294339	671.4000244
1466.816836	669.4000244
1467.339278	668.4000244
1467.861665	669.4000244
1468.383997	666.7999878
1468.906274	670.4000244
1469.428496	666.2000122
1469.950664	665.4000244
1470.472776	668.2000122
1470.994834	667.0
1471.516837	667.0
1472.038784	668.2000122
1472.560677	668.7999878
1473.082515	668.5999756
1473.604298	668.4000244
1474.126026	667.2000122
1474.6477	669.2000122
1475.169318	665.7999878
1475.690882	668.5999756
1476.212391	668.4000244
1476.733844	671.2000122
1477.255243	670.0
1477.776588	668.0
1478.297877	666.4000244
1478.819111	666.4000244
1479.340291	669.0
1479.861416	669.5999756
1480.382485	667.0
1480.9035	670.7999878
1481.424461	669.0
1481.945366	669.4000244
1482.466217	666.2000122
1482.987012	670.5999756
1483.507753	666.4000244
1484.028439	667.4000244
1484.54907	669.7999878
1485.069647	666.0
1485.590168	666.5999756
1486.110635	665.4000244
1486.631047	669.7999878
1487.151404	665.7999878
1487.671707	667.7999878
1488.191955	666.5999756
1488.712147	667.4000244
1489.232285	667.4000244
1489.752369	667.5999756
1490.272397	667.5999756
1490.792371	665.7999878
1491.31229	666.4000244
1491.832154	669.4000244
1492.351963	666.7999878
1492.871718	666.2000122
1493.391418	667.2000122
1493.911063	670.7999878
1494.430653	664.5999756
1494.950189	673.7999878
1495.46967	669.0
1495.989096	662.7999878
1496.508467	667.7999878
1497.027784	666.0
1497.547045	668.0
1498.066253	666.7999878
1498.585405	668.7999878
1499.104503	669.5999756
1499.623546	667.5999756
1500.142534	669.4000244
1500.661467	666.0
1501.180346	665.7999878
1501.69917	667.2000122
1502.21794	664.7999878
1502.736654	666.4000244
1503.255314	666.7999878
1503.77392	667.5999756
1504.29247	669.5999756
1504.810966	668.2000122
1505.329408	666.0
1505.847794	675.7999878
1506.366126	665.0
1506.884403	667.7999878
1507.402626	670.0
1507.920794	665.7999878
1508.438907	667.2000122
1508.956965	666.7999878
1509.474969	665.4000244
1509.992918	666.2000122
1510.510813	668.7999878
1511.028653	666.7999878
1511.546438	668.5999756
1512.064169	667.2000122
1512.581845	672.4000244
1513.099466	666.5999756
1513.617033	668.5999756
1514.134545	666.2000122
1514.652002	670.0
1515.169405	665.4000244
1515.686753	669.4000244
1516.204047	666.5999756
1516.721286	667.2000122
1517.23847	665.7999878
1517.7556	665.2000122
1518.272675	666.7999878
1518.789695	667.5999756
1519.306661	669.2000122
1519.823573	666.4000244
1520.340429	667.7999878
1520.857232	664.4000244
1521.373979	668.5999756
1521.890672	666.0
1522.407311	666.7999878
1522.923895	666.7999878
1523.440424	668.4000244
1523.956899	667.2000122
1524.473319	666.4000244
1524.989684	667.4000244
1525.505995	665.0
1526.022252	667.2000122
1526.538454	667.0
1527.054601	664.7999878
1527.570694	667.5999756
1528.086732	665.7999878
1528.602716	666.5999756
1529.118645	666.7999878
1529.63452	666.4000244
1530.15034	663.0
1530.666106	664.5999756
1531.181817	666.7999878
1531.697473	666.5999756
1532.213075	665.4000244
1532.728623	668.4000244
1533.244116	668.7999878
1533.759554	666.2000122
1534.274938	666.7999878
1534.790268	667.5999756
1535.305543	666.5999756
1535.820764	665.7999878
1536.33593	667.2000122
1536.851041	667.2000122
1537.366098	666.2000122
1537.881101	667.5999756
1538.396049	665.5999756
1538.910943	666.0
1539.425782	667.5999756
1539.940567	666.7999878
1540.455297	670.2000122
1540.969973	666.2000122
1541.484594	668.4000244
1541.999161	668.2000122
1542.513673	666.2000122
1543.028131	668.5999756
1543.542535	667.2000122
1544.056884	666.5999756
1544.571179	664.2000122
1545.085419	664.2000122
1545.599605	666.0
1546.113736	666.5999756
1546.627813	665.0
1547.141836	669.2000122
1547.655804	667.2000122
1548.169718	667.7999878
1548.683577	665.7999878
1549.197382	666.7999878
1549.711132	665.5999756
1550.224829	667.4000244
1550.73847	666.5999756
1551.252058	666.5999756
1551.76559	666.2000122
1552.279069	666.2000122
1552.792493	665.0
1553.305863	664.0
1553.819178	664.0
1554.332439	665.4000244
1554.845646	662.7999878
1555.358798	667.0
1555.871896	666.4000244
1556.38494	668.4000244
1556.897929	669.4000244
1557.410864	664.7999878
1557.923744	666.4000244
1558.436571	666.7999878
1558.949342	667.0
1559.46206	665.2000122
1559.974723	665.7999878
1560.487332	664.4000244
1560.999886	667.4000244
1561.512386	665.0
1562.024832	667.4000244
1562.537224	666.4000244
1563.049561	664.7999878
1563.561844	664.5999756
1564.074072	664.2000122
1564.586247	666.0
1565.098367	668.4000244
1565.610432	667.4000244
1566.122444	666.5999756
1566.634401	667.0
1567.146304	666.4000244
1567.658152	668.2000122
1568.169946	664.7999878
1568.681686	667.2000122
1569.193372	664.0
1569.705003	665.5999756
1570.21658	666.7999878
1570.728103	667.2000122
1571.239572	666.4000244
1571.750986	666.5999756
1572.262346	667.7999878
1572.773652	663.5999756
1573.284904	666.0
1573.796101	664.4000244
1574.307244	666.2000122
1574.818333	665.5999756
1575.329367	664.4000244
1575.840348	664.0
1576.351274	663.2000122
1576.862146	662.7999878
1577.372964	665.2000122
1577.883727	666.5999756
1578.394436	668.4000244
1578.905091	666.2000122
1579.415692	664.0
1579.926239	667.2000122
1580.436731	666.7999878
1580.947169	664.7999878
1581.457553	664.7999878
1581.967883	666.5999756
1582.478159	665.0
1582.98838	664.0
1583.498548	667.7999878
1584.008661	665.0
1584.51872	666.5999756
1585.028725	666.2000122
1585.538675	664.2000122
1586.048572	664.4000244
1586.558414	665.4000244
1587.068202	663.2000122
1587.577936	666.0
