1037.211545	677.5999756
1037.778412	678.5999756
1038.345221	675.0
1038.911973	679.0
1039.478666	671.4000244
1040.045302	678.0
1040.61188	673.5999756
1041.178401	674.7999878
1041.744863	676.5999756
1042.311268	675.2000122
1042.877615	675.0
1043.443905	672.7999878
1044.010136	674.7999878
1044.57631	671.5999756
1045.142426	671.7999878
1045.708484	676.0
1046.274485	671.5999756
1046.840427	672.0
1047.406312	673.2000122
1047.97214	675.7999878
1048.537909	672.0
1049.103621	671.2000122
1049.669275	674.0
1050.234871	672.4000244
1050.80041	674.2000122
1051.365891	672.2000122
1051.931314	670.5999756
1052.49668	670.2000122
1053.061988	675.4000244
1053.627238	671.7999878
1054.19243	672.5999756
1054.757565	670.2000122
1055.322642	671.5999756
1055.887661	669.7999878
1056.452623	669.0
1057.017527	672.5999756
1057.582374	670.7999878
1058.147162	672.4000244
1058.711893	672.7999878
1059.276567	671.0
1059.841183	671.4000244
1060.405741	670.4000244
1060.970241	671.7999878
1061.534684	668.7999878
1062.099069	670.7999878
1062.663397	671.0
1063.227667	667.4000244
1063.791879	669.7999878
1064.356034	673.4000244
1064.920131	676.5999756
1065.48417	673.5999756
1066.048152	669.0
1066.612076	672.7999878
1067.175943	670.0
1067.739752	667.5999756
1068.303504	669.7999878
1068.867197	666.2000122
1069.430834	671.0
1069.994413	669.2000122
1070.557934	672.5999756
1071.121397	667.5999756
1071.684803	671.0
1072.248152	671.2000122
1072.811443	670.0
1073.374676	670.4000244
1073.937852	669.2000122
1074.50097	666.4000244
1075.064031	669.4000244
1075.627034	668.4000244
1076.18998	666.7999878
1076.752868	667.2000122
1077.315698	670.2000122
1077.878471	670.0
1078.441187	669.7999878
1079.003845	667.2000122
1079.566446	669.2000122
1080.128989	671.4000244
1080.691474	671.0
1081.253902	664.5999756
1081.816273	666.7999878
1082.378586	669.2000122
1082.940841	672.5999756
1083.503039	668.0
1084.06518	671.2000122
1084.627263	669.4000244
1085.189289	671.2000122
1085.751257	668.0
1086.313168	669.2000122
1086.875021	669.0
1087.436817	668.4000244
1087.998555	669.5999756
1088.560236	665.4000244
1089.12186	669.7999878
1089.683426	668.5999756
1090.244934	668.0
1090.806386	670.7999878
1091.367779	666.4000244
1091.929116	672.2000122
1092.490395	669.4000244
1093.051616	667.5999756
1093.61278	669.4000244
1094.173887	668.7999878
1094.734936	669.2000122
1095.295928	669.2000122
1095.856863	669.2000122
1096.41774	666.4000244
1096.97856	667.7999878
1097.539322	670.2000122
1098.100027	668.4000244
1098.660675	669.4000244
1099.221265	667.7999878
1099.781798	668.0
1100.342274	668.0
1100.902692	667.4000244
1101.463053	668.2000122
1102.023356	668.4000244
1102.583602	667.7999878
1103.143791	670.5999756
1103.703922	669.0
1104.263996	670.4000244
1104.824013	669.4000244
1105.383973	666.4000244
1105.943875	670.0
1106.50372	669.7999878
1107.063507	666.7999878
1107.623237	671.0
1108.18291	669.4000244
1108.742526	670.0
1109.302084	665.4000244
1109.861585	668.7999878
1110.421029	669.5999756
1110.980416	673.2000122
1111.539745	676.7999878
1112.099017	670.2000122
1112.658231	672.7999878
1113.217389	668.2000122
1113.776489	670.7999878
1114.335531	669.5999756
1114.894517	670.7999878
1115.453445	670.4000244
1116.012316	668.7999878
1116.57113	670.5999756
1117.129887	670.4000244
1117.688586	668.0
1118.247228	671.0
1118.805813	669.4000244
1119.364341	669.5999756
1119.922811	669.5999756
1120.481224	670.0
1121.03958	669.4000244
1121.597879	668.5999756
1122.156121	668.2000122
1122.714305	669.2000122
1123.272432	670.0
1123.830502	670.0
1124.388515	667.0
1124.946471	671.0
1125.504369	668.5999756
1126.062211	668.4000244
1126.619995	672.0
1127.177722	670.5999756
1127.735391	671.5999756
1128.293004	673.5999756
1128.850559	669.7999878
1129.408058	673.7999878
1129.965499	670.0
1130.522883	671.2000122
1131.08021	672.5999756
1131.637479	671.4000244
1132.194692	669.2000122
1132.751847	668.4000244
1133.308946	668.7999878
1133.865987	669.5999756
1134.422971	669.7999878
1134.979898	672.7999878
1135.536768	669.0
1136.09358	666.7999878
1136.650336	669.0
1137.207035	666.7999878
1137.763676	668.2000122
1138.32026	671.0
1138.876788	669.5999756
1139.433258	668.5999756
1139.989671	669.7999878
1140.546027	666.5999756
1141.102326	670.4000244
1141.658568	667.5999756
1142.214753	671.2000122
1142.770881	671.7999878
1143.326951	673.4000244
1143.882965	673.0
1144.438922	670.7999878
1144.994821	671.2000122
1145.550664	671.7999878
1146.106449	673.0
1146.662178	675.4000244
1147.217849	676.4000244
1147.773464	680.2000122
1148.329021	671.5999756
1148.884521	674.0
1149.439965	677.5999756
1149.995351	695.4000244
1150.55068	745.2000122
1151.105953	732.5999756
1151.661168	689.0
1152.216326	674.7999878
1152.771428	669.2000122
1153.326472	672.4000244
1153.88146	670.7999878
1154.43639	669.2000122
1154.991263	668.5999756
1155.54608	670.4000244
1156.100839	673.5999756
1156.655542	669.7999878
1157.210188	669.5999756
1157.764776	669.4000244
1158.319308	672.5999756
1158.873783	669.5999756
1159.428201	668.7999878
1159.982561	669.2000122
1160.536865	674.5999756
1161.091112	671.0
1161.645302	670.0
1162.199436	672.5999756
1162.753512	668.0
1163.307531	669.2000122
1163.861494	672.5999756
1164.415399	669.7999878
1164.969248	670.7999878
1165.523039	674.2000122
1166.076774	670.2000122
1166.630452	667.0
1167.184073	666.7999878
1167.737637	669.4000244
1168.291144	668.2000122
1168.844595	668.0
1169.397988	670.0
1169.951325	667.5999756
1170.504605	668.2000122
1171.057828	666.2000122
1171.610994	669.0
1172.164103	669.5999756
1172.717155	668.2000122
1173.270151	668.7999878
1173.823089	669.0
1174.375971	671.0
1174.928796	667.4000244
1175.481564	669.0
1176.034276	669.7999878
1176.58693	666.0
1177.139528	670.4000244
1177.692069	670.5999756
1178.244553	668.0
1178.79698	668.4000244
1179.34935	669.0
1179.901664	666.7999878
1180.453921	669.5999756
1181.006121	669.4000244
1181.558264	673.4000244
1182.110351	671.2000122
1182.66238	665.7999878
1183.214353	667.0
1183.76627	669.7999878
1184.318129	670.2000122
1184.869932	671.0
1185.421677	669.4000244
1185.973367	669.2000122
1186.524999	670.2000122
1187.076574	665.4000244
1187.628093	669.0
1188.730961	667.5999756
1189.282309	671.0
1189.833601	669.0
1190.384837	666.2000122
1190.936015	670.4000244
1191.487137	669.5999756
1192.038202	669.2000122
1192.58921	670.4000244
1193.140162	670.5999756
1193.691057	668.7999878
1194.241895	668.4000244
1194.792676	670.2000122
1195.343401	666.7999878
1195.894069	671.5999756
1196.444681	665.5999756
1196.995235	667.4000244
1197.545733	665.5999756
1198.096175	671.2000122
1198.646559	666.7999878
1199.196887	667.0
1199.747159	668.5999756
1200.297374	667.0
1200.847532	666.5999756
1201.397633	667.7999878
1201.947678	671.7999878
1202.497666	665.4000244
1203.047598	667.7999878
1203.597472	669.5999756
1204.147291	668.7999878
1204.697052	671.4000244
1205.246757	668.4000244
1205.796406	670.2000122
1206.345997	668.5999756
1206.895532	669.0
1207.445011	671.7999878
1207.994433	669.2000122
1208.543798	667.5999756
1209.093107	666.2000122
1209.642359	669.7999878
1210.191554	671.2000122
1210.740693	667.2000122
1211.289776	672.0
1211.838801	668.5999756
1212.387771	668.2000122
1212.936683	669.4000244
1213.485539	666.5999756
1214.034339	671.0
1214.583082	666.4000244
1215.131768	665.4000244
1215.680398	670.4000244
1216.228971	671.2000122
1216.777488	669.0
1217.325948	667.5999756
1217.874352	671.5999756
1218.422699	669.2000122
1218.970989	670.0
1219.519223	669.4000244
1220.067401	670.2000122
1220.615522	667.5999756
1221.163586	667.4000244
1221.711594	668.4000244
1222.259546	670.7999878
1222.807441	670.5999756
1223.355279	669.0
1223.903061	671.7999878
1224.450787	673.7999878
1224.998455	668.7999878
1225.546068	670.4000244
1226.093624	670.5999756
1226.641123	673.7999878
1227.188567	669.0
1227.735953	671.5999756
1228.283283	669.0
1228.830557	671.2000122
1229.377774	669.0
1229.924935	670.2000122
1230.472039	672.2000122
1231.019087	671.4000244
1231.566078	668.7999878
1232.113013	669.7999878
1232.659892	669.7999878
1233.206714	672.7999878
1233.753479	670.4000244
1234.300188	671.0
1234.846841	671.2000122
1235.393438	669.7999878
1235.939978	669.0
1236.486461	668.5999756
1237.032888	667.7999878
1237.579259	674.0
1238.125573	671.5999756
1238.671831	668.5999756
1239.218033	673.7999878
1239.764178	673.7999878
1240.310267	671.2000122
1240.856299	669.7999878
1241.402275	670.2000122
1241.948194	673.4000244
1242.494058	669.0
1243.039865	671.5999756
1243.585615	673.0
1244.131309	671.5999756
1244.676947	671.7999878
1245.222528	669.4000244
1245.768053	670.5999756
1246.313522	671.2000122
1246.858935	672.2000122
1247.404291	673.0
1247.94959	670.2000122
1248.494834	671.0
1249.040021	673.7999878
1249.585152	669.4000244
1250.130226	674.5999756
1250.675244	677.7999878
1251.220206	672.7999878
1251.765111	672.0
1252.30996	670.5999756
1252.854753	671.4000244
1253.39949	673.4000244
1253.94417	674.0
1254.488794	673.2000122
1255.033362	680.0
1255.577873	668.0
1256.122328	672.0
1256.666727	677.5999756
1257.21107	672.4000244
1257.755356	669.4000244
1258.299586	673.7999878
1258.84376	676.0
1259.387877	680.0
1259.931939	678.7999878
1260.475944	672.2000122
1261.019892	676.4000244
1261.563785	675.7999878
1262.107621	676.4000244
1262.651401	682.4000244
1263.195125	687.0
1263.738793	689.5999756
1264.282404	704.4000244
1264.825959	739.4000244
1265.369458	761.0
1265.912901	720.7999878
1266.456287	692.7999878
1266.999618	682.4000244
1267.542892	675.0
1268.08611	677.5999756
1268.629271	674.5999756
1269.172377	672.0
1269.715426	671.2000122
1270.258419	671.0
1270.801356	673.5999756
1271.344237	676.2000122
1271.887061	676.5999756
1272.42983	673.0
1272.972542	671.4000244
1273.515198	673.2000122
1274.057798	673.4000244
1274.600342	674.7999878
1275.142829	670.0
1275.685261	670.0
1276.227636	675.0
1276.769955	673.4000244
1277.312218	675.4000244
1277.854425	672.7999878
1278.396576	673.7999878
1278.93867	669.5999756
1279.480709	675.2000122
1280.022691	677.0
1280.564618	676.2000122
1281.106488	680.0
1281.648302	680.2000122
1282.19006	688.2000122
1282.731761	695.7999878
1283.273407	711.2000122
1283.814997	743.0
1284.35653	848.2000122
1284.898008	1263.400024
1285.439429	1925.0
1285.980794	1385.599976
1286.522104	850.2000122
1287.063357	738.2000122
1287.604554	701.0
1288.145695	690.7999878
1288.68678	685.0
1289.227808	686.2000122
1289.768781	680.5999756
1290.309698	676.5999756
1290.850559	673.5999756
1291.391363	676.2000122
1291.932112	677.5999756
1292.472804	676.5999756
1293.013441	672.4000244
1293.554022	675.2000122
1294.094546	675.0
1294.635014	673.2000122
1295.175427	673.4000244
1295.715783	674.5999756
1296.256084	671.7999878
1296.796328	672.4000244
1297.336516	673.7999878
1297.876649	673.4000244
1298.416725	671.7999878
1298.956745	674.4000244
1299.49671	670.5999756
1300.036618	670.2000122
1300.576471	673.0
1301.116267	670.2000122
1301.656007	672.2000122
1302.195692	675.4000244
1302.73532	669.7999878
1303.274893	671.7999878
1303.81441	672.5999756
1304.35387	670.0
1304.893275	672.0
1305.432623	670.0
1305.971916	672.5999756
1306.511153	672.4000244
1307.050334	674.2000122
1307.589459	673.0
1308.128528	672.7999878
1308.667541	672.0
1309.206498	670.2000122
1309.745399	670.2000122
1310.284244	674.0
1310.823033	673.0
1311.361767	671.7999878
1311.900444	672.2000122
1312.439066	672.4000244
1312.977632	668.5999756
1313.516141	674.2000122
1314.054595	669.0
1314.592993	673.0
1315.131335	671.4000244
1315.669622	671.7999878
1316.207852	674.7999878
1316.746026	672.4000244
1317.284145	674.0
1317.822208	675.4000244
1318.360215	670.7999878
1318.898166	678.5999756
1319.436061	671.7999878
1319.9739	669.5999756
1320.511683	672.2000122
1321.049411	671.4000244
1321.587082	672.4000244
1322.124698	674.0
1322.662258	672.7999878
1323.199762	672.7999878
1323.737211	672.0
1324.274603	672.0
1324.81194	666.2000122
1325.349221	669.5999756
1325.886446	673.5999756
1326.423615	670.5999756
1326.960728	669.2000122
1327.497786	672.7999878
1328.034788	674.4000244
1328.571734	671.7999878
1329.108624	671.2000122
1329.645458	672.2000122
1330.182237	672.7999878
1330.718959	670.7999878
1331.255626	671.2000122
1331.792238	672.2000122
1332.328793	670.2000122
1332.865293	671.4000244
1333.401737	669.5999756
1333.938125	669.4000244
1334.474457	671.4000244
1335.010734	671.5999756
1335.546954	670.0
1336.083119	669.5999756
1336.619229	672.7999878
1337.155282	671.4000244
1337.69128	671.2000122
1338.227222	672.0
1338.763109	671.2000122
1339.298939	671.4000244
1339.834714	673.7999878
1340.370433	673.5999756
1340.906097	672.4000244
1341.441704	672.5999756
1341.977256	669.2000122
1342.512752	672.0
1343.048193	672.7999878
1343.583578	675.0
1344.118907	671.4000244
1344.65418	672.5999756
1345.189398	670.2000122
1345.72456	672.2000122
1346.259667	673.4000244
1346.794717	671.7999878
1347.329712	670.7999878
1347.864652	672.2000122
1348.399535	672.0
1348.934363	670.4000244
1349.469135	675.4000244
1350.003852	676.0
1350.538513	669.0
1351.073118	672.4000244
1351.607668	676.5999756
1352.142162	670.7999878
1352.6766	673.0
1353.210983	671.7999878
1353.74531	673.0
1354.279582	672.0
1354.813797	671.5999756
1355.347957	671.7999878
1355.882062	673.7999878
1356.416111	672.4000244
1356.950104	671.7999878
1357.484042	671.2000122
1358.017924	671.2000122
1358.55175	673.5999756
1359.085521	670.0
1359.619236	672.4000244
1360.152896	675.5999756
1360.6865	672.7999878
1361.220048	675.2000122
1361.753541	675.5999756
1362.286978	671.5999756
1362.82036	672.4000244
1363.353686	674.7999878
1363.886957	675.5999756
1364.420172	673.2000122
1364.953331	674.0
1365.486435	674.4000244
1366.019483	675.5999756
1366.552476	677.7999878
1367.085413	675.0
1367.618294	673.7999878
1368.15112	674.2000122
1368.683891	675.4000244
1369.216606	674.4000244
1369.749265	681.4000244
1370.281869	702.5999756
1370.814417	695.0
1371.34691	677.5999756
1371.879347	673.2000122
1372.411729	674.2000122
1372.944055	675.2000122
1373.476326	672.7999878
1374.008541	674.4000244
1374.540701	672.7999878
1375.072805	676.4000244
1375.604854	672.7999878
1376.136847	673.2000122
1376.668784	676.5999756
1377.200667	676.0
1377.732493	674.5999756
1378.264265	672.7999878
1378.79598	673.4000244
1379.32764	676.0
1379.859245	677.7999878
1380.390795	678.4000244
1380.922288	675.7999878
1381.453727	675.0
1381.98511	673.5999756
1382.516437	680.5999756
1383.047709	677.2000122
1383.578926	678.5999756
1384.110087	682.7999878
1384.641192	684.4000244
1385.172242	689.0
1385.703237	700.2000122
1386.234177	708.2000122
1386.76506	725.4000244
1387.295889	771.2000122
1387.826662	983.5999756
1388.357379	2045.599976
1388.888042	2814.0
1389.418648	1351.199951
1389.9492	829.2000122
1390.479696	726.4000244
1391.010136	706.5999756
1391.540521	694.4000244
1392.070851	687.2000122
1392.601126	684.4000244
1393.131344	681.7999878
1393.661508	681.0
1394.191616	679.7999878
1394.721669	679.0
1395.251666	677.4000244
1395.781609	674.2000122
1396.311495	675.5999756
1396.841327	677.4000244
1397.371102	672.4000244
1397.900823	674.5999756
1398.430488	675.4000244
1398.960098	677.2000122
1399.489653	671.5999756
1400.019152	674.0
1400.548596	672.2000122
1401.077984	671.4000244
1401.607317	669.4000244
1402.136595	671.4000244
1402.665818	673.0
1403.194985	673.2000122
1403.724097	674.0
1404.253153	673.5999756
1404.782154	672.7999878
1405.3111	676.5999756
1405.839991	676.2000122
1406.368826	678.5999756
1406.897606	680.0
1407.426331	679.4000244
1407.955	681.7999878
1408.483614	690.5999756
1409.012173	708.7999878
1409.540676	765.2000122
1410.069124	833.0
1410.597517	786.7999878
1411.125855	711.4000244
1411.654137	688.2000122
1412.182364	681.0
1412.710536	675.4000244
1413.238653	675.2000122
1413.766714	676.0
1414.29472	676.4000244
1414.822671	672.5999756
1415.350566	676.4000244
1415.878407	674.7999878
1416.406192	675.0
1416.933921	673.5999756
1417.461596	674.4000244
1417.989215	672.7999878
1418.516779	672.2000122
1419.044288	674.0
1419.571742	670.7999878
1420.09914	673.5999756
1420.626483	669.7999878
1421.153771	670.5999756
1421.681004	673.4000244
1422.208182	672.5999756
1422.735304	673.7999878
1423.262371	674.5999756
1423.789383	669.2000122
1424.31634	671.2000122
1424.843241	672.0
1425.370088	675.0
1425.896879	676.2000122
1426.423615	674.4000244
1426.950296	677.5999756
1427.476921	673.5999756
1428.003492	671.5999756
1428.530007	674.0
1429.056467	672.5999756
1429.582872	671.0
1430.109222	671.2000122
1430.635517	670.4000244
1431.161756	673.5999756
1431.687941	670.7999878
1432.21407	670.2000122
1432.740144	673.2000122
1433.266163	670.5999756
1433.792127	668.2000122
1434.318035	666.4000244
1434.843889	674.0
1435.369687	671.5999756
1435.895431	669.4000244
1436.421119	669.5999756
1436.946752	671.4000244
1437.47233	668.5999756
1437.997853	669.2000122
1438.52332	671.2000122
1439.048733	671.4000244
1439.57409	670.7999878
1440.099393	672.4000244
1440.62464	669.5999756
1441.149832	666.7999878
1441.67497	672.4000244
1442.200052	669.2000122
1442.725079	669.0
1443.250051	671.7999878
1443.774967	670.2000122
1444.299829	667.5999756
1444.824636	667.5999756
1445.349388	671.5999756
1445.874084	669.5999756
1446.398726	669.5999756
1446.923312	670.4000244
1447.447844	669.0
1447.97232	669.7999878
1448.496741	665.5999756
1449.021108	670.4000244
1449.545419	669.7999878
1450.069675	667.2000122
1450.593876	667.2000122
1451.118022	669.4000244
1451.642114	667.5999756
1452.16615	665.4000244
1452.690131	670.2000122
1453.214057	669.2000122
1453.737928	669.4000244
1454.261744	666.5999756
1454.785505	669.4000244
1455.309211	672.5999756
1455.832862	669.7999878
1456.356458	667.0
1456.879999	669.7999878
1457.403485	670.2000122
1457.926917	668.4000244
1458.450293	667.5999756
1458.973614	670.4000244
1459.49688	668.0
1460.020091	669.0
1460.543247	670.0
1461.066349	667.2000122
1461.589395	668.2000122
1462.112386	670.7999878
1462.635323	669.7999878
1463.158204	668.4000244
1463.681031	668.2000122
1464.203802	667.4000244
1464.726519	668.4000244
1465.249181	673.2000122
1465.771787	667.0
1466.294339	668.0
1466.816836	669.2000122
1467.339278	670.4000244
1467.861665	670.5999756
1468.383997	667.2000122
1468.906274	668.2000122
1469.428496	668.4000244
1469.950664	668.2000122
1470.472776	666.2000122
1470.994834	670.7999878
1471.516837	670.7999878
1472.038784	666.0
1472.560677	665.4000244
1473.082515	667.4000244
1473.604298	663.7999878
1474.126026	667.5999756
1474.6477	667.0
1475.169318	667.5999756
1475.690882	666.4000244
1476.212391	668.4000244
1476.733844	668.7999878
1477.255243	668.0
1477.776588	669.0
1478.297877	667.2000122
1478.819111	667.5999756
1479.340291	667.7999878
1479.861416	668.4000244
1480.382485	666.2000122
1480.9035	668.7999878
1481.424461	666.4000244
1481.945366	670.5999756
1482.466217	666.7999878
1482.987012	667.2000122
1483.507753	666.2000122
1484.028439	666.2000122
1484.54907	670.2000122
1485.069647	668.2000122
1485.590168	668.7999878
1486.110635	667.7999878
1486.631047	669.7999878
1487.151404	668.5999756
1487.671707	668.2000122
1488.191955	669.5999756
1488.712147	668.0
1489.232285	669.2000122
1489.752369	668.5999756
1490.272397	666.5999756
1490.792371	666.2000122
1491.31229	666.5999756
1491.832154	667.0
1492.351963	668.4000244
1492.871718	668.4000244
1493.391418	666.5999756
1493.911063	668.4000244
1494.430653	667.4000244
1494.950189	676.4000244
1495.46967	668.7999878
1495.989096	666.7999878
1496.508467	668.7999878
1497.027784	667.0
1497.547045	668.0
1498.066253	667.2000122
1498.585405	666.7999878
1499.104503	666.2000122
1499.623546	667.4000244
1500.142534	668.7999878
1500.661467	668.2000122
1501.180346	668.5999756
1501.69917	665.7999878
1502.21794	667.4000244
1502.736654	665.7999878
1503.255314	670.7999878
1503.77392	667.4000244
1504.29247	665.5999756
1504.810966	670.2000122
1505.329408	666.7999878
1505.847794	677.0
1506.366126	667.5999756
1506.884403	670.5999756
1507.402626	666.2000122
1507.920794	666.7999878
1508.438907	666.5999756
1508.956965	668.4000244
1509.474969	665.7999878
1509.992918	666.2000122
1510.510813	663.7999878
1511.028653	666.2000122
1511.546438	667.7999878
1512.064169	668.4000244
1512.581845	667.7999878
1513.099466	668.4000244
1513.617033	669.7999878
1514.134545	664.2000122
1514.652002	668.7999878
1515.169405	667.0
1515.686753	666.4000244
1516.204047	667.7999878
1516.721286	667.5999756
1517.23847	665.0
1517.7556	666.0
1518.272675	666.2000122
1518.789695	669.0
1519.306661	665.2000122
1519.823573	666.5999756
1520.340429	667.0
1520.857232	668.0
1521.373979	669.0
1521.890672	664.7999878
1522.407311	668.0
1522.923895	665.7999878
1523.440424	668.4000244
1523.956899	668.0
1524.473319	669.4000244
1524.989684	665.4000244
1525.505995	670.4000244
1526.022252	667.5999756
1526.538454	671.5999756
1527.054601	668.5999756
1527.570694	669.2000122
1528.086732	668.4000244
1528.602716	666.7999878
1529.118645	666.5999756
1529.63452	668.0
1530.15034	668.0
1530.666106	669.7999878
1531.181817	668.7999878
1531.697473	666.2000122
1532.213075	668.4000244
1532.728623	668.2000122
1533.244116	668.2000122
1533.759554	666.2000122
1534.274938	667.5999756
1534.790268	668.2000122
1535.305543	666.5999756
1535.820764	666.5999756
1536.33593	666.2000122
1536.851041	668.0
1537.366098	664.5999756
1537.881101	668.0
1538.396049	667.2000122
1538.910943	667.7999878
1539.425782	665.2000122
1539.940567	665.7999878
1540.455297	666.0
1540.969973	668.4000244
1541.484594	666.7999878
1541.999161	667.5999756
1542.513673	664.4000244
1543.028131	667.4000244
1543.542535	669.4000244
1544.056884	668.4000244
1544.571179	669.0
1545.085419	667.2000122
1545.599605	665.5999756
1546.113736	668.2000122
1546.627813	667.0
1547.141836	668.2000122
1547.655804	665.5999756
1548.169718	668.5999756
1548.683577	668.2000122
1549.197382	668.7999878
1549.711132	667.4000244
1550.224829	668.4000244
1550.73847	666.0
1551.252058	667.5999756
1551.76559	667.5999756
1552.279069	666.4000244
1552.792493	665.7999878
1553.305863	669.5999756
1553.819178	665.2000122
1554.332439	668.4000244
1554.845646	670.2000122
1555.358798	666.5999756
1555.871896	668.2000122
1556.38494	666.7999878
1556.897929	665.0
1557.410864	667.2000122
1557.923744	667.7999878
1558.436571	666.7999878
1558.949342	663.7999878
1559.46206	666.4000244
1559.974723	669.2000122
1560.487332	669.7999878
1560.999886	665.4000244
1561.512386	667.4000244
1562.024832	668.2000122
1562.537224	668.2000122
1563.049561	665.4000244
1563.561844	666.0
1564.074072	670.2000122
1564.586247	666.7999878
1565.098367	668.7999878
1565.610432	663.2000122
1566.122444	668.4000244
1566.634401	668.2000122
1567.146304	667.7999878
1567.658152	669.2000122
1568.169946	668.2000122
1568.681686	670.0
1569.193372	666.2000122
1569.705003	668.0
1570.21658	668.0
1570.728103	667.7999878
1571.239572	665.4000244
1571.750986	666.2000122
1572.262346	667.2000122
1572.773652	667.2000122
1573.284904	669.7999878
1573.796101	666.0
1574.307244	666.2000122
1574.818333	665.7999878
1575.329367	667.7999878
1575.840348	669.2000122
1576.351274	665.2000122
1576.862146	666.0
1577.372964	668.2000122
1577.883727	668.7999878
1578.394436	672.4000244
1578.905091	668.2000122
1579.415692	662.0
1579.926239	665.0
1580.436731	664.7999878
1580.947169	668.2000122
1581.457553	668.0
1581.967883	666.2000122
1582.478159	668.4000244
1582.98838	665.7999878
1583.498548	666.2000122
1584.008661	665.2000122
1584.51872	666.5999756
1585.028725	665.4000244
1585.538675	665.7999878
1586.048572	667.7999878
1586.558414	666.4000244
1587.068202	667.0
1587.577936	667.7999878
