1042.452273	719.0
1043.018714	713.7999878
1043.585098	719.0
1044.151424	715.2000122
1044.717692	716.5999756
1045.283903	720.2000122
1045.850056	716.7999878
1046.416151	717.4000244
1046.982188	716.0
1047.548167	716.5999756
1048.114089	713.7999878
1048.679953	716.2000122
1049.24576	713.4000244
1049.811509	711.4000244
1050.3772	710.7999878
1050.942833	711.7999878
1051.508408	714.4000244
1052.073926	712.4000244
1052.639387	716.2000122
1053.204789	714.4000244
1053.770134	709.5999756
1054.335421	714.7999878
1054.900651	713.7999878
1055.465823	714.2000122
1056.030937	711.5999756
1056.595993	712.5999756
1057.160992	709.4000244
1057.725934	707.5999756
1058.290817	712.2000122
1058.855643	713.5999756
1059.420411	712.2000122
1059.985122	708.2000122
1060.549775	717.0
1061.114371	711.4000244
1061.678908	713.2000122
1062.243389	709.5999756
1062.807811	714.0
1063.372176	709.5999756
1063.936483	710.7999878
1064.500733	712.2000122
1065.064925	707.7999878
1065.62906	708.4000244
1066.193137	707.7999878
1066.757156	710.7999878
1067.321118	707.0
1067.885022	710.0
1068.448869	713.0
1069.012658	709.2000122
1069.57639	709.5999756
1070.140063	714.4000244
1070.70368	708.2000122
1071.267239	707.7999878
1071.83074	714.2000122
1072.394184	705.7999878
1072.95757	709.2000122
1073.520899	711.2000122
1074.08417	704.4000244
1074.647383	708.2000122
1075.21054	709.5999756
1075.773638	705.2000122
1076.336679	705.7999878
1076.899663	709.5999756
1077.462589	710.5999756
1078.025457	710.7999878
1078.588268	710.4000244
1079.151022	705.4000244
1079.713718	707.0
1080.276356	706.2000122
1080.838937	706.4000244
1081.401461	708.2000122
1081.963927	709.5999756
1082.526336	710.4000244
1083.088687	707.2000122
1083.650981	708.0
1084.213217	704.0
1084.775396	708.7999878
1085.337517	703.7999878
1085.899581	706.7999878
1086.461587	710.4000244
1087.023536	708.4000244
1087.585428	705.2000122
1088.147262	710.5999756
1088.709039	710.0
1089.270758	710.5999756
1089.83242	709.0
1090.394024	708.7999878
1090.955571	711.7999878
1091.517061	708.0
1092.078493	712.4000244
1092.639868	711.2000122
1093.201185	706.7999878
1093.762445	711.4000244
1094.323648	710.0
1094.884793	708.5999756
1095.445881	704.2000122
1096.006911	709.4000244
1096.567884	709.2000122
1097.1288	713.5999756
1097.689659	711.5999756
1098.25046	708.7999878
1098.811203	708.2000122
1099.37189	708.5999756
1099.932518	705.2000122
1100.49309	707.2000122
1101.053604	709.5999756
1101.614061	704.7999878
1102.174461	706.7999878
1102.734803	708.2000122
1103.295088	707.2000122
1103.855316	705.5999756
1104.415486	705.7999878
1104.975599	708.0
1105.535655	709.0
1106.095653	708.0
1106.655594	707.2000122
1107.215478	705.7999878
1107.775305	705.5999756
1108.335074	708.2000122
1108.894786	706.7999878
1109.45444	705.7999878
1110.014038	709.5999756
1110.573578	712.0
1111.133061	702.0
1111.692486	704.0
1112.251854	707.4000244
1112.811165	705.4000244
1113.370419	707.4000244
1113.929616	706.4000244
1114.488755	710.2000122
1115.047837	708.0
1115.606862	705.5999756
1116.16583	706.4000244
1116.72474	705.7999878
1117.283593	706.0
1117.842389	706.7999878
1118.401128	702.2000122
1118.959809	703.2000122
1119.518433	708.2000122
1120.077	708.7999878
1120.63551	706.0
1121.193963	705.4000244
1121.752358	703.2000122
1122.310697	705.0
1122.868978	705.7999878
1123.427202	704.2000122
1123.985368	704.7999878
1124.543478	706.0
1125.10153	703.7999878
1125.659526	708.0
1126.217464	705.0
1126.775345	710.5999756
1127.333168	710.2000122
1127.890935	704.5999756
1128.448644	705.5999756
1129.006297	705.7999878
1129.563892	705.2000122
1130.12143	704.0
1130.678911	710.4000244
1131.236335	706.5999756
1131.793701	707.2000122
1132.351011	705.0
1132.908263	706.5999756
1133.465458	706.0
1134.022597	705.2000122
1134.579678	708.4000244
1135.136702	708.2000122
1135.693669	704.7999878
1136.250578	704.0
1136.807431	710.4000244
1137.364227	703.7999878
1137.920965	707.2000122
1138.477647	710.2000122
1139.034271	700.5999756
1139.590839	706.4000244
1140.147349	706.5999756
1140.703802	706.4000244
1141.260198	707.7999878
1141.816537	706.4000244
1142.37282	706.2000122
1142.929045	707.4000244
1143.485213	709.0
1144.041323	705.7999878
1144.597377	706.4000244
1145.153374	705.5999756
1145.709314	704.0
1146.265197	707.2000122
1146.821023	705.5999756
1147.376792	711.5999756
1147.932503	707.4000244
1148.488158	708.0
1149.043756	705.5999756
1149.599297	714.5999756
1150.154781	723.5999756
1150.710207	751.2000122
1151.265577	736.5999756
1151.82089	709.4000244
1152.376146	708.7999878
1152.931345	708.5999756
1153.486487	705.7999878
1154.041572	710.4000244
1154.5966	702.4000244
1155.151571	707.2000122
1155.706485	703.7999878
1156.261342	704.7999878
1156.816142	709.2000122
1157.370885	701.0
1157.925572	705.2000122
1158.480201	705.0
1159.034774	704.0
1159.589289	706.0
1160.143748	707.5999756
1160.698149	708.7999878
1161.252494	706.7999878
1161.806782	701.7999878
1162.361013	705.5999756
1162.915187	704.5999756
1163.469304	702.4000244
1164.023364	707.5999756
1164.577368	708.2000122
1165.131314	705.5999756
1165.685204	702.5999756
1166.239036	706.5999756
1166.792812	705.5999756
1167.346531	705.2000122
1167.900193	706.7999878
1168.453798	707.0
1169.007347	705.0
1169.560838	704.5999756
1170.114273	702.7999878
1170.66765	705.7999878
1171.220971	708.5999756
1171.774235	705.5999756
1172.327443	706.7999878
1172.880593	708.5999756
1173.433687	702.5999756
1173.986723	703.7999878
1174.539703	703.4000244
1175.092626	706.2000122
1175.645493	706.4000244
1176.198302	706.7999878
1176.751055	704.7999878
1177.303751	701.4000244
1177.85639	700.5999756
1178.408972	706.4000244
1178.961498	703.7999878
1179.513966	702.7999878
1180.066378	705.5999756
1180.618733	701.7999878
1181.171032	706.4000244
1181.723273	705.5999756
1182.275458	704.5999756
1182.827586	699.2000122
1183.379657	704.0
1183.931672	705.2000122
1184.48363	707.4000244
1185.035531	707.0
1185.587375	704.5999756
1186.139162	705.4000244
1186.690893	707.0
1187.242567	706.5999756
1187.794184	705.0
1188.345745	709.2000122
1188.897249	706.4000244
1189.448696	704.0
1190.000086	703.7999878
1190.55142	705.2000122
1191.102697	701.0
1191.653918	706.7999878
1192.205081	707.0
1192.756188	703.4000244
1193.858232	703.4000244
1194.409169	701.2000122
1194.960049	703.7999878
1195.510872	703.7999878
1196.061639	702.4000244
1196.612349	700.2000122
1197.163003	706.7999878
1197.713599	706.4000244
1198.264139	703.2000122
1198.814623	705.5999756
1199.36505	702.4000244
1199.91542	702.4000244
1200.465734	705.2000122
1201.01599	702.2000122
1201.566191	700.5999756
1202.116334	705.2000122
1202.666421	699.2000122
1203.216452	701.2000122
1203.766425	701.5999756
1204.316343	700.4000244
1204.866203	704.4000244
1205.416007	703.0
1205.965754	704.4000244
1206.515445	705.7999878
1207.065079	705.4000244
1207.614657	702.5999756
1208.164177	702.0
1208.713642	702.2000122
1209.26305	704.5999756
1209.812401	706.7999878
1210.361695	700.2000122
1210.910933	705.5999756
1211.460115	702.2000122
1212.00924	707.7999878
1212.558308	706.0
1213.10732	700.7999878
1213.656275	700.7999878
1214.205174	703.7999878
1214.754016	706.5999756
1215.302801	703.7999878
1215.85153	705.4000244
1216.400203	702.2000122
1216.948819	703.5999756
1217.497378	705.0
1218.045881	703.2000122
1218.594327	699.5999756
1219.142717	701.7999878
1219.691051	704.5999756
1220.239327	708.0
1220.787548	704.4000244
1221.335712	704.7999878
1221.883819	704.4000244
1222.43187	703.7999878
1222.979864	703.5999756
1223.527802	705.7999878
1224.075683	705.5999756
1224.623508	702.5999756
1225.171277	703.0
1225.718989	705.0
1226.266644	703.7999878
1226.814243	706.5999756
1227.361786	703.2000122
1227.909272	702.7999878
1228.456702	701.2000122
1229.004075	696.0
1229.551392	702.4000244
1230.098652	703.7999878
1230.645856	706.7999878
1231.193003	701.4000244
1231.740094	702.2000122
1232.287129	700.5999756
1232.834107	699.2000122
1233.381029	705.4000244
1233.927894	699.0
1234.474703	699.0
1235.021455	702.4000244
1235.568151	700.7999878
1236.114791	702.7999878
1236.661374	702.0
1237.207901	700.4000244
1237.754372	696.4000244
1238.300786	703.5999756
1238.847144	707.2000122
1239.393445	702.2000122
1239.93969	702.7999878
1240.485879	702.5999756
1241.032011	702.7999878
1241.578087	704.7999878
1242.124106	701.7999878
1242.67007	704.0
1243.215976	702.2000122
1243.761827	702.2000122
1244.307621	699.2000122
1244.853359	700.5999756
1245.39904	702.2000122
1245.944665	703.4000244
1246.490234	699.0
1247.035746	702.4000244
1247.581203	699.5999756
1248.126602	703.7999878
1248.671946	701.4000244
1249.217233	700.4000244
1249.762464	703.0
1250.307638	704.2000122
1250.852757	700.2000122
1251.397819	701.4000244
1251.942824	703.5999756
1252.487774	702.2000122
1253.032667	697.5999756
1253.577503	701.2000122
1254.122284	703.0
1254.667008	698.5999756
1255.211676	704.7999878
1255.756288	698.5999756
1256.300843	699.4000244
1256.845342	706.0
1257.389785	703.5999756
1257.934172	705.0
1258.478502	703.4000244
1259.022776	701.4000244
1259.566994	705.4000244
1260.111156	712.7999878
1260.655261	701.2000122
1261.199311	701.4000244
1261.743304	698.2000122
1262.28724	699.4000244
1262.831121	703.2000122
1263.374945	706.4000244
1263.918713	701.7999878
1264.462425	704.2000122
1265.006081	714.4000244
1265.54968	722.2000122
1266.093223	711.4000244
1266.636711	701.0
1267.180141	702.0
1267.723516	701.5999756
1268.266835	702.5999756
1268.810097	706.7999878
1269.353303	703.5999756
1269.896453	698.0
1270.439547	697.0
1270.982584	701.2000122
1271.525566	706.7999878
1272.068491	703.5999756
1272.61136	704.5999756
1273.154173	699.4000244
1273.69693	699.4000244
1274.239631	701.7999878
1274.782275	700.2000122
1275.324864	704.0
1275.867396	695.7999878
1276.409872	702.5999756
1276.952292	703.2000122
1277.494656	702.5999756
1278.036964	701.4000244
1278.579215	700.2000122
1279.121411	702.5999756
1279.66355	702.4000244
1280.205634	703.0
1280.747661	703.7999878
1281.289632	703.5999756
1281.831547	701.7999878
1282.373406	703.0
1282.915209	706.5999756
1283.456955	708.7999878
1283.998646	717.7999878
1284.540281	748.4000244
1285.081859	844.0
1285.623381	924.4000244
1286.164848	803.5999756
1286.706258	729.4000244
1287.247612	711.5999756
1287.788911	703.7999878
1288.330153	707.0
1288.871339	701.5999756
1289.412469	703.5999756
1289.953543	702.0
1290.494561	700.0
1291.035523	701.2000122
1291.576428	701.2000122
1292.117278	700.5999756
1292.658072	698.4000244
1293.19881	702.7999878
1293.739492	699.0
1294.280118	703.0
1294.820687	699.2000122
1295.361201	701.5999756
1295.901659	699.5999756
1296.442061	697.2000122
1296.982406	696.7999878
1297.522696	704.2000122
1298.06293	702.2000122
1298.603108	700.7999878
1299.143229	697.7999878
1299.683295	701.4000244
1300.223305	695.7999878
1300.763259	700.7999878
1301.303157	701.4000244
1301.842999	698.4000244
1302.382785	698.5999756
1302.922515	703.4000244
1303.462189	700.5999756
1304.001807	697.0
1304.541369	696.5999756
1305.080875	700.0
1305.620326	703.0
1306.15972	698.7999878
1306.699058	704.0
1307.238341	698.7999878
1307.777567	700.7999878
1308.316738	699.5999756
1308.855853	698.5999756
1309.394912	700.0
1309.933915	698.5999756
1310.472862	699.2000122
1311.011753	702.0
1311.550588	701.7999878
1312.089367	698.7999878
1312.62809	702.0
1313.166758	693.7999878
1313.70537	701.2000122
1314.243925	699.0
1314.782425	695.5999756
1315.320869	701.0
1315.859257	699.4000244
1316.397589	702.0
1316.935866	704.2000122
1317.474086	700.0
1318.012251	699.0
1318.55036	697.4000244
1319.088413	702.4000244
1319.62641	699.5999756
1320.164351	699.2000122
1320.702236	699.5999756
1321.240066	697.7999878
1321.777839	698.7999878
1322.315557	701.4000244
1322.853219	703.5999756
1323.390826	699.5999756
1323.928376	705.0
1324.465871	698.4000244
1325.003309	702.7999878
1325.540692	704.4000244
1326.07802	698.0
1326.615291	702.0
1327.152506	695.2000122
1327.689666	697.4000244
1328.22677	694.5999756
1328.763818	698.0
1329.300811	697.5999756
1329.837747	698.4000244
1330.374628	699.2000122
1330.911453	698.7999878
1331.448222	697.4000244
1331.984936	698.7999878
1332.521594	699.0
1333.058196	701.7999878
1333.594742	697.2000122
1334.131232	696.0
1334.667667	696.5999756
1335.204046	693.7999878
1335.740369	696.2000122
1336.276637	699.2000122
1336.812848	696.7999878
1337.349004	698.5999756
1337.885105	698.2000122
1338.421149	697.0
1338.957138	698.7999878
1339.493071	697.7999878
1340.028949	697.5999756
1340.56477	699.2000122
1341.100536	699.0
1341.636246	696.7999878
1342.171901	699.4000244
1342.7075	694.7999878
1343.243043	701.7999878
1343.77853	699.5999756
1344.313962	699.4000244
1344.849338	696.0
1345.384659	698.0
1345.919923	698.2000122
1346.455133	695.0
1346.990286	695.5999756
1347.525384	693.4000244
1348.060426	697.5999756
1348.595412	697.5999756
1349.130343	697.0
1349.665218	694.0
1350.200037	699.2000122
1350.734801	693.7999878
1351.269509	694.5999756
1351.804162	699.7999878
1352.338758	694.4000244
1352.8733	697.4000244
1353.407785	697.5999756
1353.942215	695.2000122
1354.476589	702.2000122
1355.010908	698.0
1355.545171	696.4000244
1356.079379	697.2000122
1356.61353	699.4000244
1357.147627	696.5999756
1357.681667	696.0
1358.215652	697.5999756
1358.749582	695.4000244
1359.283456	701.7999878
1359.817274	695.0
1360.351037	694.5999756
1360.884744	701.0
1361.418395	696.5999756
1361.951991	696.5999756
1362.485531	696.2000122
1363.019016	698.2000122
1363.552445	693.5999756
1364.085819	695.7999878
1364.619137	693.0
1365.1524	698.2000122
1365.685607	694.7999878
1366.218758	702.5999756
1366.751854	693.4000244
1367.284894	696.2000122
1367.817879	695.2000122
1368.350808	700.5999756
1368.883682	695.4000244
1369.4165	698.2000122
1369.949263	697.4000244
1370.48197	705.7999878
1371.014622	699.7999878
1371.547218	700.0
1372.079758	700.0
1372.612244	696.5999756
1373.144673	694.5999756
1373.677047	696.2000122
1374.209366	699.5999756
1374.741629	696.2000122
1375.273836	700.2000122
1375.805989	696.2000122
1376.338085	701.4000244
1376.870126	698.0
1377.402112	697.7999878
1377.934042	698.0
1378.465917	696.0
1378.997736	696.7999878
1379.5295	699.0
1380.061208	699.4000244
1380.592861	696.7999878
1381.124459	697.4000244
1381.656	695.7999878
1382.187487	702.0
1382.718918	696.0
1383.250294	697.7999878
1383.781614	697.4000244
1384.312879	699.2000122
1384.844088	703.0
1385.375242	695.0
1385.90634	699.5999756
1386.437383	702.5999756
1386.968371	710.5999756
1387.499303	724.5999756
1388.03018	785.7999878
1388.561001	1021.400024
1389.091767	1033.599976
1389.622478	783.4000244
1390.153133	721.0
1390.683733	701.2000122
1391.214277	706.5999756
1391.744766	703.7999878
1392.2752	701.4000244
1392.805578	698.2000122
1393.335901	693.0
1393.866168	702.0
1394.396381	696.5999756
1394.926537	698.4000244
1395.456639	695.7999878
1395.986685	694.7999878
1396.516675	699.0
1397.046611	699.0
1397.576491	692.5999756
1398.106315	698.5999756
1398.636084	697.7999878
1399.165798	693.4000244
1399.695457	700.0
1400.22506	698.2000122
1400.754608	693.7999878
1401.284101	699.0
1401.813538	695.7999878
1402.34292	694.2000122
1402.872247	696.2000122
1403.401518	699.2000122
1403.930734	697.0
1404.459895	695.7999878
1404.989	697.2000122
1405.51805	700.4000244
1406.047045	698.0
1406.575984	697.5999756
1407.104869	701.2000122
1407.633697	695.5999756
1408.162471	701.0
1408.691189	697.4000244
1409.219852	704.2000122
1409.74846	721.2000122
1410.277013	726.4000244
1410.80551	711.5999756
1411.333952	703.4000244
1411.862339	698.2000122
1412.39067	698.0
1412.918946	695.5999756
1413.447167	695.5999756
1413.975333	697.4000244
1414.503444	698.4000244
1415.031499	697.0
1415.559499	706.4000244
1416.087444	694.2000122
1416.615333	696.5999756
1417.143167	697.2000122
1417.670947	696.4000244
1418.19867	694.2000122
1418.726339	690.2000122
1419.253952	693.7999878
1419.781511	694.7999878
1420.309014	696.7999878
1420.836461	696.7999878
1421.363854	694.4000244
1421.891191	697.7999878
1422.418474	695.2000122
1422.945701	689.7999878
1423.472872	698.7999878
1423.999989	695.2000122
1424.52705	692.5999756
1425.054057	694.0
1425.581008	694.4000244
1426.107904	695.2000122
1426.634745	696.2000122
1427.16153	691.7999878
1427.688261	695.2000122
1428.214936	696.2000122
1428.741556	697.7999878
1429.268121	695.5999756
1429.794631	694.2000122
1430.321085	696.2000122
1430.847485	695.4000244
1431.373829	695.7999878
1431.900118	698.0
1432.426353	692.0
1432.952532	693.2000122
1433.478655	692.4000244
1434.004724	693.4000244
1434.530738	694.7999878
1435.056696	695.5999756
1435.5826	695.4000244
1436.108448	694.7999878
1436.634241	693.5999756
1437.159979	693.5999756
1437.685662	694.4000244
1438.21129	694.2000122
1438.736863	691.4000244
1439.262381	693.7999878
1439.787843	692.7999878
1440.313251	693.0
1440.838603	693.5999756
1441.3639	698.0
1441.889143	695.0
1442.41433	697.5999756
1442.939462	696.7999878
1443.464539	697.2000122
1443.989561	696.7999878
1444.514528	694.2000122
1445.03944	695.0
1445.564297	695.5999756
1446.089099	693.0
1446.613846	696.0
1447.138537	699.4000244
1447.663174	691.7999878
1448.187756	695.0
1448.712282	694.4000244
1449.236754	694.4000244
1449.761171	695.0
1450.285532	692.4000244
1450.809839	693.5999756
1451.33409	688.7999878
1451.858287	692.4000244
1452.382428	696.0
1452.906515	691.2000122
1453.430546	694.4000244
1453.954523	691.4000244
1454.478444	694.5999756
1455.002311	695.0
1455.526123	693.5999756
1456.049879	696.4000244
1456.573581	690.2000122
1457.097227	697.2000122
1457.620819	695.2000122
1458.144356	693.2000122
1458.667837	696.4000244
1459.191264	689.7999878
1459.714636	693.0
1460.237952	691.0
1460.761214	693.4000244
1461.284421	695.7999878
1461.807573	694.5999756
1462.33067	693.2000122
1462.853712	695.2000122
1463.376699	694.4000244
1463.899632	693.4000244
1464.422509	693.7999878
1464.945331	696.5999756
1465.468099	695.5999756
1465.990811	693.2000122
1466.513469	694.4000244
1467.036071	687.5999756
1467.558619	690.0
1468.081112	693.2000122
1468.60355	694.2000122
1469.125933	692.7999878
1469.648261	692.4000244
1470.170534	697.0
1470.692752	693.4000244
1471.214916	698.4000244
1471.737024	692.2000122
1472.259078	696.4000244
1472.781077	691.4000244
1473.303021	693.2000122
1473.82491	693.5999756
1474.346744	693.2000122
1474.868523	694.2000122
1475.390248	694.4000244
1475.911917	688.0
1476.433532	691.2000122
1476.955092	691.0
1477.476597	693.2000122
1477.998047	691.2000122
1478.519442	689.4000244
1479.040783	694.0
1479.562068	694.5999756
1480.083299	689.4000244
1480.604475	690.7999878
1481.125596	692.7999878
1481.646663	694.7999878
1482.167674	689.2000122
1482.688631	694.0
1483.209533	689.5999756
1483.73038	693.4000244
1484.251172	690.5999756
1484.771909	690.7999878
1485.292592	688.0
1485.81322	686.4000244
1486.333793	695.0
1486.854311	692.5999756
1487.374775	690.2000122
1487.895183	693.0
1488.415537	690.2000122
1488.935836	690.4000244
1489.456081	691.2000122
1489.97627	687.5999756
1490.496405	691.0
1491.016485	692.7999878
1491.536511	690.4000244
1492.056481	691.7999878
1492.576397	692.7999878
1493.096258	688.2000122
1493.616064	690.0
1494.135816	695.7999878
1494.655513	689.0
1495.175155	694.4000244
1495.694742	691.5999756
1496.214274	693.7999878
1496.733752	694.5999756
1497.253175	693.2000122
1497.772544	691.4000244
1498.291858	694.0
1498.811116	687.0
1499.330321	689.7999878
1499.84947	693.2000122
1500.368565	691.0
1500.887605	690.5999756
1501.406591	691.5999756
1501.925521	693.5999756
1502.444397	690.4000244
1502.963219	688.7999878
1503.481985	690.2000122
1504.000697	691.2000122
1504.519355	689.0
1505.037957	688.5999756
1505.556505	690.2000122
1506.074999	694.2000122
1506.593437	691.2000122
1507.111821	693.0
1507.63015	688.5999756
1508.148425	691.0
1508.666645	693.4000244
1509.18481	692.2000122
1509.702921	690.0
1510.220977	692.5999756
1510.738979	697.7999878
1511.256925	690.5999756
1511.774817	691.2000122
1512.292655	692.5999756
1512.810438	692.4000244
1513.328166	691.4000244
1513.84584	686.4000244
1514.363459	689.2000122
1514.881023	689.7999878
1515.398533	689.4000244
1515.915988	693.5999756
1516.433389	692.2000122
1516.950734	693.7999878
1517.468026	693.4000244
1517.985263	689.2000122
1518.502445	687.5999756
1519.019572	691.7999878
1519.536645	689.7999878
1520.053664	692.5999756
1520.570628	688.5999756
1521.087537	693.5999756
1521.604392	690.5999756
1522.121192	691.0
1522.637937	689.2000122
1523.154628	691.4000244
1523.671265	689.4000244
1524.187847	691.7999878
1524.704374	690.4000244
1525.220847	688.2000122
1525.737265	689.7999878
1526.253629	691.0
1526.769938	690.4000244
1527.286192	691.5999756
1527.802392	691.4000244
1528.318538	690.4000244
1528.834629	690.4000244
1529.350666	691.4000244
1529.866648	692.2000122
1530.382575	689.2000122
1530.898448	692.5999756
1531.414266	689.2000122
1531.93003	690.2000122
1532.44574	689.7999878
1532.961395	688.5999756
1533.476995	688.7999878
1533.992541	692.4000244
1534.508033	687.7999878
1535.02347	687.7999878
1535.538852	690.0
1536.05418	694.2000122
1536.569454	690.4000244
1537.084673	687.7999878
1537.599837	687.4000244
1538.114947	690.5999756
1538.630003	688.4000244
1539.145004	686.5999756
1539.659951	694.4000244
1540.174843	691.4000244
1540.689681	689.7999878
1541.204465	687.0
1541.719194	689.2000122
1542.233868	689.0
1542.748488	689.0
1543.263054	686.4000244
1543.777565	689.0
1544.292022	690.4000244
1544.806424	687.7999878
1545.320772	687.4000244
1545.835066	687.5999756
1546.349305	691.2000122
1546.863489	688.4000244
1547.37762	687.4000244
1547.891696	689.7999878
1548.405717	688.0
1548.919684	689.7999878
1549.433597	691.5999756
1549.947455	689.2000122
1550.461259	692.4000244
1550.975009	690.0
1551.488704	686.2000122
1552.002345	691.7999878
1552.515931	691.0
1553.029463	687.5999756
1553.542941	689.2000122
1554.056364	690.0
1554.569733	688.7999878
1555.083048	692.0
1555.596308	687.4000244
1556.109514	688.5999756
1556.622665	686.4000244
1557.135762	689.0
1557.648805	688.7999878
1558.161794	686.4000244
1558.674728	691.7999878
1559.187608	691.7999878
1559.700433	690.7999878
1560.213205	687.5999756
1560.725921	688.0
1561.238584	689.7999878
1561.751192	689.5999756
1562.263746	692.2000122
1562.776246	690.7999878
1563.288691	691.5999756
1563.801082	689.2000122
1564.313419	689.2000122
1564.825701	688.4000244
1565.337929	690.5999756
1565.850103	694.0
1566.362223	687.7999878
1566.874288	688.4000244
1567.386299	690.0
1567.898256	687.5999756
1568.410158	691.4000244
1568.922007	685.7999878
1569.4338	688.2000122
1569.94554	689.4000244
1570.457226	691.5999756
1570.968857	688.7999878
1571.480434	690.0
1571.991956	684.4000244
1572.503425	691.2000122
1573.014839	691.5999756
1573.526199	689.4000244
1574.037505	688.2000122
1574.548756	689.4000244
1575.059953	686.0
1575.571096	687.2000122
1576.082185	689.7999878
1576.59322	687.0
1577.1042	689.4000244
1577.615126	688.2000122
1578.125998	689.5999756
1578.636816	685.5999756
1579.14758	689.4000244
1579.658289	691.4000244
1580.168944	691.2000122
1580.679545	690.2000122
1581.190092	683.4000244
1581.700585	687.2000122
1582.211023	686.4000244
1582.721407	688.7999878
1583.231737	688.2000122
1583.742013	689.5999756
1584.252235	689.0
1584.762403	689.4000244
1585.272516	692.2000122
1585.782575	688.2000122
1586.292581	689.5999756
1586.802532	693.2000122
1587.312428	693.5999756
1587.822271	685.2000122
1588.33206	690.5999756
1588.841794	688.4000244
1589.351474	690.4000244
1589.8611	687.2000122
1590.370672	688.7999878
1590.88019	688.7999878
1591.389654	689.7999878
1591.899064	689.7999878
1592.408419	687.7999878
