1042.452273	690.5999756
1043.018714	689.7999878
1043.585098	689.4000244
1044.151424	687.4000244
1044.717692	692.2000122
1045.283903	692.0
1045.850056	686.5999756
1046.416151	686.2000122
1046.982188	689.0
1047.548167	690.4000244
1048.114089	685.0
1048.679953	685.2000122
1049.24576	687.5999756
1049.811509	684.0
1050.3772	686.5999756
1050.942833	683.7999878
1051.508408	685.7999878
1052.073926	686.4000244
1052.639387	683.7999878
1053.204789	683.2000122
1053.770134	687.4000244
1054.335421	683.4000244
1054.900651	687.0
1055.465823	684.7999878
1056.030937	684.0
1056.595993	683.2000122
1057.160992	687.2000122
1057.725934	683.7999878
1058.290817	684.4000244
1058.855643	682.7999878
1059.420411	683.2000122
1059.985122	684.5999756
1060.549775	683.4000244
1061.114371	684.2000122
1061.678908	686.4000244
1062.243389	684.0
1062.807811	687.7999878
1063.372176	684.5999756
1063.936483	683.5999756
1064.500733	683.0
1065.064925	683.0
1065.62906	684.4000244
1066.193137	684.5999756
1066.757156	680.7999878
1067.321118	683.2000122
1067.885022	683.5999756
1068.448869	683.5999756
1069.012658	683.4000244
1069.57639	685.0
1070.140063	689.7999878
1070.70368	685.5999756
1071.267239	684.2000122
1071.83074	681.7999878
1072.394184	687.2000122
1072.95757	685.0
1073.520899	683.7999878
1074.08417	687.0
1074.647383	682.2000122
1075.21054	682.7999878
1075.773638	681.7999878
1076.336679	683.2000122
1076.899663	686.7999878
1077.462589	686.7999878
1078.025457	681.5999756
1078.588268	688.0
1079.151022	680.5999756
1079.713718	685.7999878
1080.276356	687.7999878
1080.838937	685.5999756
1081.401461	689.0
1081.963927	685.4000244
1082.526336	689.0
1083.088687	690.2000122
1083.650981	686.5999756
1084.213217	688.5999756
1084.775396	685.0
1085.337517	688.0
1085.899581	683.5999756
1086.461587	683.5999756
1087.023536	688.5999756
1087.585428	687.0
1088.147262	685.0
1088.709039	690.0
1089.270758	691.0
1089.83242	684.5999756
1090.394024	688.0
1090.955571	685.0
1091.517061	685.4000244
1092.078493	683.7999878
1092.639868	690.4000244
1093.201185	687.2000122
1093.762445	686.2000122
1094.323648	688.2000122
1094.884793	685.7999878
1095.445881	685.5999756
1096.006911	684.5999756
1096.567884	684.5999756
1097.1288	693.5999756
1097.689659	686.7999878
1098.25046	687.4000244
1098.811203	685.0
1099.37189	684.7999878
1099.932518	688.4000244
1100.49309	686.5999756
1101.053604	683.4000244
1101.614061	685.4000244
1102.174461	687.4000244
1102.734803	684.0
1103.295088	689.0
1103.855316	686.0
1104.415486	685.7999878
1104.975599	686.2000122
1105.535655	685.7999878
1106.095653	691.5999756
1106.655594	684.2000122
1107.215478	686.7999878
1107.775305	690.5999756
1108.335074	688.7999878
1108.894786	691.0
1109.45444	692.2000122
1110.014038	689.4000244
1110.573578	688.2000122
1111.133061	691.5999756
1111.692486	690.5999756
1112.251854	692.2000122
1112.811165	691.4000244
1113.370419	692.2000122
1113.929616	692.2000122
1114.488755	688.4000244
1115.047837	686.7999878
1115.606862	689.2000122
1116.16583	690.4000244
1116.72474	691.5999756
1117.283593	689.0
1117.842389	684.2000122
1118.401128	688.2000122
1118.959809	689.0
1119.518433	686.7999878
1120.077	686.7999878
1120.63551	685.4000244
1121.193963	685.5999756
1121.752358	687.0
1122.310697	684.0
1122.868978	687.5999756
1123.427202	685.4000244
1123.985368	683.2000122
1124.543478	685.0
1125.10153	683.5999756
1125.659526	686.7999878
1126.217464	681.5999756
1126.775345	683.0
1127.333168	685.5999756
1127.890935	688.7999878
1128.448644	682.4000244
1129.006297	685.4000244
1129.563892	681.7999878
1130.12143	681.4000244
1130.678911	686.4000244
1131.236335	684.4000244
1131.793701	684.2000122
1132.351011	684.4000244
1132.908263	683.2000122
1133.465458	682.2000122
1134.022597	684.4000244
1134.579678	684.2000122
1135.136702	683.2000122
1135.693669	681.7999878
1136.250578	684.0
1136.807431	683.5999756
1137.364227	681.2000122
1137.920965	684.0
1138.477647	680.2000122
1139.034271	682.5999756
1139.590839	684.0
1140.147349	683.5999756
1140.703802	682.2000122
1141.260198	682.7999878
1141.816537	681.7999878
1142.37282	683.0
1142.929045	684.5999756
1143.485213	683.0
1144.041323	686.4000244
1144.597377	684.2000122
1145.153374	682.7999878
1145.709314	683.2000122
1146.265197	686.0
1146.821023	682.4000244
1147.376792	686.7999878
1147.932503	682.7999878
1148.488158	685.2000122
1149.043756	683.5999756
1149.599297	687.4000244
1150.154781	682.5999756
1150.710207	681.0
1151.265577	684.5999756
1151.82089	685.4000244
1152.376146	683.0
1152.931345	684.5999756
1153.486487	683.0
1154.041572	685.4000244
1154.5966	684.2000122
1155.151571	684.7999878
1155.706485	682.4000244
1156.261342	682.5999756
1156.816142	683.4000244
1157.370885	684.2000122
1157.925572	684.2000122
1158.480201	684.2000122
1159.034774	682.4000244
1159.589289	683.0
1160.143748	683.0
1160.698149	685.4000244
1161.252494	684.5999756
1161.806782	686.5999756
1162.361013	689.0
1162.915187	685.0
1163.469304	685.2000122
1164.023364	686.4000244
1164.577368	684.2000122
1165.131314	682.2000122
1165.685204	685.5999756
1166.239036	683.7999878
1166.792812	682.2000122
1167.346531	682.7999878
1167.900193	683.7999878
1168.453798	682.4000244
1169.007347	681.7999878
1169.560838	681.0
1170.114273	681.2000122
1170.66765	688.4000244
1171.220971	682.7999878
1171.774235	684.5999756
1172.327443	684.0
1172.880593	684.4000244
1173.433687	681.4000244
1173.986723	684.5999756
1174.539703	686.4000244
1175.092626	684.0
1175.645493	680.4000244
1176.198302	686.4000244
1176.751055	683.2000122
1177.303751	683.7999878
1177.85639	682.0
1178.408972	682.0
1178.961498	687.2000122
1179.513966	683.7999878
1180.066378	688.5999756
1180.618733	682.7999878
1181.171032	686.2000122
1181.723273	685.4000244
1182.275458	686.0
1182.827586	687.2000122
1183.379657	686.4000244
1183.931672	688.4000244
1184.48363	687.2000122
1185.035531	690.4000244
1185.587375	691.0
1186.139162	686.5999756
1186.690893	684.0
1187.242567	686.0
1187.794184	685.7999878
1188.345745	687.4000244
1188.897249	689.7999878
1189.448696	686.0
1190.000086	686.2000122
1190.55142	685.0
1191.102697	685.0
1191.653918	685.4000244
1192.205081	687.4000244
1192.756188	687.5999756
1193.858232	682.2000122
1194.409169	684.2000122
1194.960049	687.4000244
1195.510872	684.4000244
1196.061639	684.0
1196.612349	684.2000122
1197.163003	685.0
1197.713599	682.4000244
1198.264139	685.0
1198.814623	684.5999756
1199.36505	685.5999756
1199.91542	681.7999878
1200.465734	683.0
1201.01599	684.4000244
1201.566191	682.0
1202.116334	682.4000244
1202.666421	683.5999756
1203.216452	684.7999878
1203.766425	684.5999756
1204.316343	684.5999756
1204.866203	683.5999756
1205.416007	684.7999878
1205.965754	684.2000122
1206.515445	683.2000122
1207.065079	684.2000122
1207.614657	683.5999756
1208.164177	684.2000122
1208.713642	684.2000122
1209.26305	687.2000122
1209.812401	686.4000244
1210.361695	689.7999878
1210.910933	686.4000244
1211.460115	686.5999756
1212.00924	684.4000244
1212.558308	686.4000244
1213.10732	687.4000244
1213.656275	686.2000122
1214.205174	684.2000122
1214.754016	686.0
1215.302801	685.2000122
1215.85153	685.0
1216.400203	686.7999878
1216.948819	684.2000122
1217.497378	687.7999878
1218.045881	684.7999878
1218.594327	688.2000122
1219.142717	688.5999756
1219.691051	690.4000244
1220.239327	689.5999756
1220.787548	688.2000122
1221.335712	689.0
1221.883819	690.2000122
1222.43187	686.2000122
1222.979864	692.0
1223.527802	691.2000122
1224.075683	689.2000122
1224.623508	688.2000122
1225.171277	691.7999878
1225.718989	693.4000244
1226.266644	687.4000244
1226.814243	689.4000244
1227.361786	689.2000122
1227.909272	689.0
1228.456702	689.2000122
1229.004075	689.0
1229.551392	691.2000122
1230.098652	689.4000244
1230.645856	690.0
1231.193003	688.0
1231.740094	694.0
1232.287129	687.2000122
1232.834107	692.5999756
1233.381029	691.7999878
1233.927894	690.5999756
1234.474703	688.2000122
1235.021455	694.4000244
1235.568151	689.4000244
1236.114791	690.7999878
1236.661374	692.7999878
1237.207901	691.5999756
1237.754372	688.0
1238.300786	690.5999756
1238.847144	692.4000244
1239.393445	694.5999756
1239.93969	691.0
1240.485879	691.2000122
1241.032011	693.4000244
1241.578087	687.5999756
1242.124106	692.5999756
1242.67007	694.7999878
1243.215976	694.5999756
1243.761827	690.4000244
1244.307621	692.0
1244.853359	691.5999756
1245.39904	688.0
1245.944665	696.0
1246.490234	693.4000244
1247.035746	692.0
1247.581203	695.4000244
1248.126602	695.2000122
1248.671946	699.4000244
1249.217233	697.0
1249.762464	691.4000244
1250.307638	695.2000122
1250.852757	697.0
1251.397819	694.4000244
1251.942824	696.5999756
1252.487774	693.5999756
1253.032667	694.5999756
1253.577503	697.7999878
1254.122284	698.5999756
1254.667008	696.2000122
1255.211676	700.2000122
1255.756288	698.5999756
1256.300843	700.0
1256.845342	705.0
1257.389785	709.5999756
1257.934172	719.7999878
1258.478502	716.7999878
1259.022776	714.4000244
1259.566994	714.2000122
1260.111156	737.0
1260.655261	727.5999756
1261.199311	736.5999756
1261.743304	747.2000122
1262.28724	765.4000244
1262.831121	768.4000244
1263.374945	767.0
1263.918713	752.5999756
1264.462425	737.7999878
1265.006081	736.4000244
1265.54968	723.0
1266.093223	721.7999878
1266.636711	711.7999878
1267.180141	712.4000244
1267.723516	714.4000244
1268.266835	710.4000244
1268.810097	711.0
1269.353303	715.0
1269.896453	711.4000244
1270.439547	713.4000244
1270.982584	711.7999878
1271.525566	713.7999878
1272.068491	710.0
1272.61136	707.5999756
1273.154173	715.4000244
1273.69693	714.2000122
1274.239631	713.2000122
1274.782275	712.4000244
1275.324864	716.7999878
1275.867396	719.2000122
1276.409872	718.2000122
1276.952292	720.7999878
1277.494656	728.2000122
1278.036964	732.7999878
1278.579215	739.0
1279.121411	753.7999878
1279.66355	771.5999756
1280.205634	797.0
1280.747661	855.4000244
1281.289632	1003.0
1281.831547	1276.400024
1282.373406	1755.599976
1282.915209	2151.199951
1283.456955	1945.400024
1283.998646	1430.400024
1284.540281	1088.800049
1285.081859	916.4000244
1285.623381	833.7999878
1286.164848	793.0
1286.706258	766.0
1287.247612	747.7999878
1287.788911	743.2000122
1288.330153	729.4000244
1288.871339	729.4000244
1289.412469	725.7999878
1289.953543	721.7999878
1290.494561	719.2000122
1291.035523	715.0
1291.576428	715.4000244
1292.117278	714.7999878
1292.658072	708.5999756
1293.19881	713.7999878
1293.739492	710.2000122
1294.280118	711.5999756
1294.820687	709.7999878
1295.361201	707.2000122
1295.901659	709.4000244
1296.442061	706.2000122
1296.982406	703.0
1297.522696	708.4000244
1298.06293	709.0
1298.603108	702.0
1299.143229	707.4000244
1299.683295	703.2000122
1300.223305	704.0
1300.763259	706.4000244
1301.303157	707.0
1301.842999	702.7999878
1302.382785	701.2000122
1302.922515	697.7999878
1303.462189	702.5999756
1304.001807	700.5999756
1304.541369	696.5999756
1305.080875	702.0
1305.620326	702.7999878
1306.15972	702.2000122
1306.699058	700.2000122
1307.238341	701.7999878
1307.777567	701.2000122
1308.316738	696.2000122
1308.855853	697.2000122
1309.394912	698.5999756
1309.933915	700.4000244
1310.472862	700.4000244
1311.011753	697.7999878
1311.550588	696.2000122
1312.089367	696.5999756
1312.62809	693.4000244
1313.166758	698.0
1313.70537	700.5999756
1314.243925	694.2000122
1314.782425	690.4000244
1315.320869	697.5999756
1315.859257	696.5999756
1316.397589	695.7999878
1316.935866	697.5999756
1317.474086	697.0
1318.012251	701.4000244
1318.55036	696.5999756
1319.088413	695.7999878
1319.62641	697.7999878
1320.164351	695.5999756
1320.702236	695.7999878
1321.240066	694.5999756
1321.777839	691.2000122
1322.315557	693.4000244
1322.853219	697.2000122
1323.390826	696.0
1323.928376	702.2000122
1324.465871	691.5999756
1325.003309	689.0
1325.540692	700.2000122
1326.07802	698.0
1326.615291	692.0
1327.152506	695.5999756
1327.689666	696.4000244
1328.22677	696.4000244
1328.763818	699.2000122
1329.300811	696.2000122
1329.837747	697.4000244
1330.374628	696.2000122
1330.911453	695.7999878
1331.448222	697.4000244
1331.984936	697.7999878
1332.521594	693.7999878
1333.058196	697.4000244
1333.594742	698.7999878
1334.131232	697.5999756
1334.667667	698.5999756
1335.204046	694.7999878
1335.740369	694.4000244
1336.276637	694.7999878
1336.812848	693.4000244
1337.349004	698.2000122
1337.885105	696.0
1338.421149	696.7999878
1338.957138	695.2000122
1339.493071	694.4000244
1340.028949	692.2000122
1340.56477	699.2000122
1341.100536	697.2000122
1341.636246	699.2000122
1342.171901	696.0
1342.7075	699.4000244
1343.243043	697.5999756
1343.77853	693.5999756
1344.313962	699.0
1344.849338	693.5999756
1345.384659	691.5999756
1345.919923	697.2000122
1346.455133	700.0
1346.990286	698.2000122
1347.525384	696.2000122
1348.060426	694.5999756
1348.595412	694.5999756
1349.130343	696.0
1349.665218	695.2000122
1350.200037	696.2000122
1350.734801	700.4000244
1351.269509	693.7999878
1351.804162	696.4000244
1352.338758	698.4000244
1352.8733	697.5999756
1353.407785	694.2000122
1353.942215	703.5999756
1354.476589	697.4000244
1355.010908	698.7999878
1355.545171	699.4000244
1356.079379	698.4000244
1356.61353	700.4000244
1357.147627	700.2000122
1357.681667	700.0
1358.215652	701.2000122
1358.749582	698.5999756
1359.283456	699.5999756
1359.817274	699.4000244
1360.351037	699.5999756
1360.884744	700.5999756
1361.418395	699.5999756
1361.951991	700.5999756
1362.485531	701.7999878
1363.019016	703.0
1363.552445	703.0
1364.085819	708.2000122
1364.619137	710.4000244
1365.1524	706.4000244
1365.685607	703.5999756
1366.218758	706.7999878
1366.751854	708.5999756
1367.284894	708.0
1367.817879	708.2000122
1368.350808	712.2000122
1368.883682	726.0
1369.4165	754.7999878
1369.949263	762.5999756
1370.48197	730.5999756
1371.014622	718.0
1371.547218	713.4000244
1372.079758	712.7999878
1372.612244	712.0
1373.144673	711.2000122
1373.677047	714.2000122
1374.209366	718.4000244
1374.741629	717.7999878
1375.273836	719.0
1375.805989	714.2000122
1376.338085	715.7999878
1376.870126	719.7999878
1377.402112	721.0
1377.934042	719.7999878
1378.465917	728.5999756
1378.997736	730.4000244
1379.5295	730.2000122
1380.061208	733.4000244
1380.592861	733.4000244
1381.124459	744.5999756
1381.656	744.7999878
1382.187487	759.2000122
1382.718918	768.4000244
1383.250294	779.2000122
1383.781614	804.4000244
1384.312879	832.2000122
1384.844088	887.0
1385.375242	1004.0
1385.90634	1234.199951
1386.437383	1786.199951
1386.968371	2943.399902
1387.499303	3772.600098
1388.03018	2827.399902
1388.561001	1647.599976
1389.091767	1167.599976
1389.622478	949.2000122
1390.153133	864.7999878
1390.683733	816.7999878
1391.214277	786.5999756
1391.744766	765.2000122
1392.2752	756.4000244
1392.805578	746.5999756
1393.335901	741.5999756
1393.866168	737.2000122
1394.396381	731.4000244
1394.926537	732.7999878
1395.456639	730.4000244
1395.986685	727.4000244
1396.516675	725.5999756
1397.046611	726.2000122
1397.576491	725.0
1398.106315	724.5999756
1398.636084	722.5999756
1399.165798	722.0
1399.695457	718.5999756
1400.22506	718.0
1400.754608	723.7999878
1401.284101	725.5999756
1401.813538	717.0
1402.34292	719.7999878
1402.872247	718.4000244
1403.401518	725.2000122
1403.930734	725.2000122
1404.459895	723.7999878
1404.989	727.5999756
1405.51805	742.0
1406.047045	745.4000244
1406.575984	752.0
1407.104869	767.4000244
1407.633697	787.7999878
1408.162471	809.5999756
1408.691189	825.4000244
1409.219852	836.0
1409.74846	814.2000122
1410.277013	788.0
1410.80551	763.2000122
1411.333952	744.2000122
1411.862339	729.0
1412.39067	722.5999756
1412.918946	713.7999878
1413.447167	711.4000244
1413.975333	717.7999878
1414.503444	705.0
1415.031499	703.7999878
1415.559499	712.7999878
1416.087444	697.0
1416.615333	702.2000122
1417.143167	698.5999756
1417.670947	700.0
1418.19867	699.2000122
1418.726339	696.7999878
1419.253952	697.2000122
1419.781511	696.0
1420.309014	701.0
1420.836461	696.2000122
1421.363854	697.4000244
1421.891191	698.2000122
1422.418474	699.0
1422.945701	699.2000122
1423.472872	700.7999878
1423.999989	696.7999878
1424.52705	695.7999878
1425.054057	698.0
1425.581008	696.7999878
1426.107904	696.4000244
1426.634745	693.4000244
1427.16153	691.2000122
1427.688261	695.7999878
1428.214936	694.0
1428.741556	693.0
1429.268121	691.0
1429.794631	690.5999756
1430.321085	691.0
1430.847485	686.2000122
1431.373829	688.7999878
1431.900118	689.0
1432.426353	688.0
1432.952532	694.4000244
1433.478655	693.2000122
1434.004724	691.0
1434.530738	686.7999878
1435.056696	690.2000122
1435.5826	689.7999878
1436.108448	690.0
1436.634241	689.5999756
1437.159979	689.2000122
1437.685662	690.4000244
1438.21129	690.4000244
1438.736863	687.4000244
1439.262381	691.4000244
1439.787843	688.2000122
1440.313251	690.2000122
1440.838603	691.2000122
1441.3639	689.2000122
1441.889143	691.0
1442.41433	688.5999756
1442.939462	689.7999878
1443.464539	689.4000244
1443.989561	691.7999878
1444.514528	686.5999756
1445.03944	687.4000244
1445.564297	690.5999756
1446.089099	686.4000244
1446.613846	692.5999756
1447.138537	688.5999756
1447.663174	690.5999756
1448.187756	686.2000122
1448.712282	692.7999878
1449.236754	685.5999756
1449.761171	687.7999878
1450.285532	686.5999756
1450.809839	685.0
1451.33409	684.4000244
1451.858287	688.0
1452.382428	686.7999878
1452.906515	687.2000122
1453.430546	689.0
1453.954523	684.7999878
1454.478444	687.0
1455.002311	683.2000122
1455.526123	686.0
1456.049879	683.4000244
1456.573581	685.4000244
1457.097227	690.5999756
1457.620819	686.0
1458.144356	687.7999878
1458.667837	688.7999878
1459.191264	688.5999756
1459.714636	687.4000244
1460.237952	686.7999878
1460.761214	687.5999756
1461.284421	688.0
1461.807573	685.2000122
1462.33067	688.0
1462.853712	688.5999756
1463.376699	693.2000122
1463.899632	689.5999756
1464.422509	684.5999756
1464.945331	687.5999756
1465.468099	685.4000244
1465.990811	689.7999878
1466.513469	685.4000244
1467.036071	690.5999756
1467.558619	685.5999756
1468.081112	688.7999878
1468.60355	692.4000244
1469.125933	686.5999756
1469.648261	688.7999878
1470.170534	687.5999756
1470.692752	686.0
1471.214916	689.0
1471.737024	683.2000122
1472.259078	686.5999756
1472.781077	682.4000244
1473.303021	686.2000122
1473.82491	687.0
1474.346744	683.7999878
1474.868523	684.5999756
1475.390248	683.0
1475.911917	685.5999756
1476.433532	684.5999756
1476.955092	683.0
1477.476597	684.2000122
1477.998047	681.0
1478.519442	683.2000122
1479.040783	683.0
1479.562068	683.7999878
1480.083299	683.5999756
1480.604475	685.2000122
1481.125596	680.7999878
1481.646663	680.5999756
1482.167674	685.4000244
1482.688631	684.7999878
1483.209533	681.2000122
1483.73038	684.7999878
1484.251172	688.5999756
1484.771909	682.4000244
1485.292592	685.7999878
1485.81322	684.5999756
1486.333793	684.2000122
1486.854311	688.2000122
1487.374775	684.7999878
1487.895183	683.0
1488.415537	685.7999878
1488.935836	679.4000244
1489.456081	682.2000122
1489.97627	683.5999756
1490.496405	683.4000244
1491.016485	681.4000244
1491.536511	682.7999878
1492.056481	684.7999878
1492.576397	684.7999878
1493.096258	683.7999878
1493.616064	684.7999878
1494.135816	684.5999756
1494.655513	684.7999878
1495.175155	682.4000244
1495.694742	684.5999756
1496.214274	683.7999878
1496.733752	683.7999878
1497.253175	684.5999756
1497.772544	681.5999756
1498.291858	688.0
1498.811116	684.0
1499.330321	679.4000244
1499.84947	685.7999878
1500.368565	682.0
1500.887605	688.0
1501.406591	682.0
1501.925521	681.0
1502.444397	682.2000122
1502.963219	683.7999878
1503.481985	682.5999756
1504.000697	685.5999756
1504.519355	683.4000244
1505.037957	685.0
1505.556505	682.0
1506.074999	680.5999756
1506.593437	683.7999878
1507.111821	680.0
1507.63015	680.4000244
1508.148425	681.4000244
1508.666645	683.5999756
1509.18481	682.5999756
1509.702921	683.4000244
1510.220977	679.5999756
1510.738979	688.5999756
1511.256925	681.0
1511.774817	683.2000122
1512.292655	682.4000244
1512.810438	682.0
1513.328166	681.0
1513.84584	681.5999756
1514.363459	684.5999756
1514.881023	682.5999756
1515.398533	682.7999878
1515.915988	679.2000122
1516.433389	681.7999878
1516.950734	681.7999878
1517.468026	682.5999756
1517.985263	679.2000122
1518.502445	682.4000244
1519.019572	680.7999878
1519.536645	685.5999756
1520.053664	680.7999878
1520.570628	679.0
1521.087537	682.7999878
1521.604392	685.2000122
1522.121192	685.0
1522.637937	684.2000122
1523.154628	682.7999878
1523.671265	682.2000122
1524.187847	683.0
1524.704374	680.7999878
1525.220847	683.5999756
1525.737265	683.4000244
1526.253629	685.5999756
1526.769938	682.5999756
1527.286192	683.5999756
1527.802392	686.4000244
1528.318538	681.4000244
1528.834629	679.7999878
1529.350666	682.4000244
1529.866648	682.5999756
1530.382575	682.4000244
1530.898448	684.0
1531.414266	684.7999878
1531.93003	684.5999756
1532.44574	681.0
1532.961395	684.0
1533.476995	683.4000244
1533.992541	683.2000122
1534.508033	678.5999756
1535.02347	683.4000244
1535.538852	682.7999878
1536.05418	680.5999756
1536.569454	682.4000244
1537.084673	683.2000122
1537.599837	677.4000244
1538.114947	687.5999756
1538.630003	681.2000122
1539.145004	682.2000122
1539.659951	680.0
1540.174843	685.5999756
1540.689681	680.0
1541.204465	683.5999756
1541.719194	681.5999756
1542.233868	685.7999878
1542.748488	682.7999878
1543.263054	680.5999756
1543.777565	684.4000244
1544.292022	679.2000122
1544.806424	686.0
1545.320772	684.5999756
1545.835066	680.0
1546.349305	680.5999756
1546.863489	680.7999878
1547.37762	682.0
1547.891696	684.2000122
1548.405717	681.7999878
1548.919684	683.0
1549.433597	681.5999756
1549.947455	681.5999756
1550.461259	684.5999756
1550.975009	678.0
1551.488704	681.7999878
1552.002345	681.2000122
1552.515931	685.0
1553.029463	682.4000244
1553.542941	682.2000122
1554.056364	683.7999878
1554.569733	685.0
1555.083048	680.4000244
1555.596308	682.0
1556.109514	681.0
1556.622665	682.5999756
1557.135762	681.5999756
1557.648805	683.5999756
1558.161794	682.0
1558.674728	684.4000244
1559.187608	681.2000122
1559.700433	680.5999756
1560.213205	682.7999878
1560.725921	681.2000122
1561.238584	682.7999878
1561.751192	683.2000122
1562.263746	683.7999878
1562.776246	681.7999878
1563.288691	684.4000244
1563.801082	681.5999756
1564.313419	680.5999756
1564.825701	681.2000122
1565.337929	683.4000244
1565.850103	682.0
1566.362223	683.4000244
1566.874288	684.0
1567.386299	682.7999878
1567.898256	679.5999756
1568.410158	680.5999756
1568.922007	682.5999756
1569.4338	681.7999878
1569.94554	683.2000122
1570.457226	683.5999756
1570.968857	680.2000122
1571.480434	681.2000122
1571.991956	682.2000122
1572.503425	685.7999878
1573.014839	682.5999756
1573.526199	682.5999756
1574.037505	682.4000244
1574.548756	681.4000244
1575.059953	680.7999878
1575.571096	683.5999756
1576.082185	681.4000244
1576.59322	683.0
1577.1042	681.0
1577.615126	685.2000122
1578.125998	680.4000244
1578.636816	682.4000244
1579.14758	684.2000122
1579.658289	683.2000122
1580.168944	684.0
1580.679545	681.4000244
1581.190092	683.0
1581.700585	681.2000122
1582.211023	679.2000122
1582.721407	682.0
1583.231737	682.4000244
1583.742013	685.2000122
1584.252235	680.0
1584.762403	683.5999756
1585.272516	683.7999878
1585.782575	683.4000244
1586.292581	685.0
1586.802532	685.4000244
1587.312428	683.0
1587.822271	684.4000244
1588.33206	683.4000244
1588.841794	683.0
1589.351474	685.5999756
1589.8611	682.7999878
1590.370672	682.4000244
1590.88019	684.0
1591.389654	680.5999756
1591.899064	683.2000122
1592.408419	680.7999878
