1042.452273	694.0
1043.018714	695.4000244
1043.585098	692.2000122
1044.151424	688.5999756
1044.717692	692.2000122
1045.283903	688.0
1045.850056	692.7999878
1046.416151	689.5999756
1046.982188	689.0
1047.548167	689.0
1048.114089	688.7999878
1048.679953	691.4000244
1049.24576	691.5999756
1049.811509	689.2000122
1050.3772	688.4000244
1050.942833	690.7999878
1051.508408	685.0
1052.073926	686.2000122
1052.639387	687.4000244
1053.204789	687.5999756
1053.770134	687.7999878
1054.335421	686.0
1054.900651	687.5999756
1055.465823	689.2000122
1056.030937	687.7999878
1056.595993	686.7999878
1057.160992	688.2000122
1057.725934	686.5999756
1058.290817	687.7999878
1058.855643	686.0
1059.420411	685.4000244
1059.985122	689.7999878
1060.549775	688.0
1061.114371	687.2000122
1061.678908	685.2000122
1062.243389	685.5999756
1062.807811	686.2000122
1063.372176	688.2000122
1063.936483	688.2000122
1064.500733	689.4000244
1065.064925	688.0
1065.62906	684.0
1066.193137	687.0
1066.757156	686.7999878
1067.321118	688.2000122
1067.885022	687.4000244
1068.448869	688.4000244
1069.012658	690.4000244
1069.57639	687.0
1070.140063	691.5999756
1070.70368	689.0
1071.267239	687.2000122
1071.83074	685.5999756
1072.394184	684.7999878
1072.95757	688.0
1073.520899	687.4000244
1074.08417	685.5999756
1074.647383	687.5999756
1075.21054	685.5999756
1075.773638	684.2000122
1076.336679	685.0
1076.899663	691.0
1077.462589	689.4000244
1078.025457	689.7999878
1078.588268	682.7999878
1079.151022	682.4000244
1079.713718	686.4000244
1080.276356	686.4000244
1080.838937	691.0
1081.401461	687.2000122
1081.963927	686.4000244
1082.526336	685.4000244
1083.088687	688.7999878
1083.650981	688.7999878
1084.213217	688.4000244
1084.775396	687.7999878
1085.337517	688.0
1085.899581	684.4000244
1086.461587	688.5999756
1087.023536	685.0
1087.585428	686.4000244
1088.147262	689.4000244
1088.709039	686.5999756
1089.270758	689.0
1089.83242	687.2000122
1090.394024	686.4000244
1090.955571	691.5999756
1091.517061	691.0
1092.078493	689.7999878
1092.639868	688.5999756
1093.201185	686.7999878
1093.762445	685.4000244
1094.323648	687.7999878
1094.884793	688.4000244
1095.445881	688.0
1096.006911	690.5999756
1096.567884	687.7999878
1097.1288	697.2000122
1097.689659	685.7999878
1098.25046	686.2000122
1098.811203	688.7999878
1099.37189	689.7999878
1099.932518	687.0
1100.49309	687.0
1101.053604	684.4000244
1101.614061	688.4000244
1102.174461	690.4000244
1102.734803	691.2000122
1103.295088	690.7999878
1103.855316	687.7999878
1104.415486	687.4000244
1104.975599	688.7999878
1105.535655	690.5999756
1106.095653	693.0
1106.655594	692.4000244
1107.215478	687.5999756
1107.775305	691.7999878
1108.335074	689.5999756
1108.894786	691.5999756
1109.45444	691.5999756
1110.014038	696.2000122
1110.573578	696.5999756
1111.133061	693.0
1111.692486	693.5999756
1112.251854	695.7999878
1112.811165	698.2000122
1113.370419	693.2000122
1113.929616	695.7999878
1114.488755	693.0
1115.047837	693.5999756
1115.606862	697.4000244
1116.16583	695.0
1116.72474	692.0
1117.283593	691.4000244
1117.842389	691.5999756
1118.401128	692.4000244
1118.959809	687.0
1119.518433	688.0
1120.077	691.5999756
1120.63551	688.2000122
1121.193963	687.0
1121.752358	688.5999756
1122.310697	689.7999878
1122.868978	686.0
1123.427202	685.4000244
1123.985368	687.0
1124.543478	687.7999878
1125.10153	687.0
1125.659526	688.7999878
1126.217464	687.2000122
1126.775345	688.0
1127.333168	688.5999756
1127.890935	686.2000122
1128.448644	687.2000122
1129.006297	686.7999878
1129.563892	688.2000122
1130.12143	685.2000122
1130.678911	686.7999878
1131.236335	686.7999878
1131.793701	682.5999756
1132.351011	686.0
1132.908263	686.2000122
1133.465458	688.0
1134.022597	685.7999878
1134.579678	685.5999756
1135.136702	686.7999878
1135.693669	685.5999756
1136.250578	686.0
1136.807431	686.0
1137.364227	685.2000122
1137.920965	684.7999878
1138.477647	686.4000244
1139.034271	684.4000244
1139.590839	682.7999878
1140.147349	689.5999756
1140.703802	685.0
1141.260198	688.4000244
1141.816537	686.5999756
1142.37282	687.2000122
1142.929045	687.4000244
1143.485213	692.0
1144.041323	687.0
1144.597377	687.5999756
1145.153374	688.7999878
1145.709314	687.4000244
1146.265197	686.7999878
1146.821023	685.2000122
1147.376792	689.2000122
1147.932503	686.0
1148.488158	688.2000122
1149.043756	686.2000122
1149.599297	690.4000244
1150.154781	687.7999878
1150.710207	686.4000244
1151.265577	687.0
1151.82089	688.4000244
1152.376146	689.0
1152.931345	686.5999756
1153.486487	688.5999756
1154.041572	685.5999756
1154.5966	684.7999878
1155.151571	685.7999878
1155.706485	686.7999878
1156.261342	688.5999756
1156.816142	686.4000244
1157.370885	686.5999756
1157.925572	691.5999756
1158.480201	688.5999756
1159.034774	687.5999756
1159.589289	685.5999756
1160.143748	687.4000244
1160.698149	686.7999878
1161.252494	689.5999756
1161.806782	689.2000122
1162.361013	688.5999756
1162.915187	685.4000244
1163.469304	688.0
1164.023364	687.2000122
1164.577368	685.2000122
1165.131314	686.5999756
1165.685204	682.4000244
1166.239036	687.4000244
1166.792812	690.5999756
1167.346531	687.2000122
1167.900193	685.5999756
1168.453798	689.0
1169.007347	691.7999878
1169.560838	685.4000244
1170.114273	684.4000244
1170.66765	682.0
1171.220971	689.5999756
1171.774235	687.5999756
1172.327443	685.0
1172.880593	686.7999878
1173.433687	687.2000122
1173.986723	686.7999878
1174.539703	687.7999878
1175.092626	689.0
1175.645493	688.7999878
1176.198302	688.2000122
1176.751055	688.5999756
1177.303751	686.2000122
1177.85639	688.5999756
1178.408972	691.7999878
1178.961498	687.7999878
1179.513966	689.2000122
1180.066378	689.4000244
1180.618733	689.7999878
1181.171032	685.4000244
1181.723273	690.4000244
1182.275458	693.0
1182.827586	690.7999878
1183.379657	693.2000122
1183.931672	692.0
1184.48363	693.0
1185.035531	691.0
1185.587375	689.7999878
1186.139162	695.0
1186.690893	692.7999878
1187.242567	692.2000122
1187.794184	690.5999756
1188.345745	693.0
1188.897249	694.0
1189.448696	692.0
1190.000086	691.5999756
1190.55142	691.7999878
1191.102697	688.2000122
1191.653918	690.4000244
1192.205081	690.5999756
1192.756188	691.0
1193.858232	687.7999878
1194.409169	691.7999878
1194.960049	692.0
1195.510872	685.2000122
1196.061639	684.5999756
1196.612349	691.5999756
1197.163003	685.4000244
1197.713599	688.2000122
1198.264139	685.7999878
1198.814623	687.2000122
1199.36505	687.0
1199.91542	688.5999756
1200.465734	692.7999878
1201.01599	685.2000122
1201.566191	687.4000244
1202.116334	686.5999756
1202.666421	686.7999878
1203.216452	688.5999756
1203.766425	688.4000244
1204.316343	687.0
1204.866203	688.5999756
1205.416007	686.5999756
1205.965754	688.0
1206.515445	684.0
1207.065079	688.5999756
1207.614657	686.4000244
1208.164177	690.4000244
1208.713642	683.0
1209.26305	690.2000122
1209.812401	688.4000244
1210.361695	688.5999756
1210.910933	691.5999756
1211.460115	689.2000122
1212.00924	691.7999878
1212.558308	688.4000244
1213.10732	690.7999878
1213.656275	686.0
1214.205174	690.4000244
1214.754016	690.5999756
1215.302801	687.4000244
1215.85153	690.5999756
1216.400203	692.5999756
1216.948819	690.0
1217.497378	689.4000244
1218.045881	691.7999878
1218.594327	690.0
1219.142717	687.7999878
1219.691051	691.0
1220.239327	693.7999878
1220.787548	696.2000122
1221.335712	691.4000244
1221.883819	693.7999878
1222.43187	691.0
1222.979864	689.0
1223.527802	694.2000122
1224.075683	692.2000122
1224.623508	694.7999878
1225.171277	691.0
1225.718989	689.2000122
1226.266644	693.7999878
1226.814243	694.0
1227.361786	693.0
1227.909272	693.4000244
1228.456702	689.5999756
1229.004075	693.0
1229.551392	694.5999756
1230.098652	692.7999878
1230.645856	694.2000122
1231.193003	696.5999756
1231.740094	692.2000122
1232.287129	695.4000244
1232.834107	696.7999878
1233.381029	692.4000244
1233.927894	697.5999756
1234.474703	697.4000244
1235.021455	694.4000244
1235.568151	693.4000244
1236.114791	696.7999878
1236.661374	693.0
1237.207901	691.0
1237.754372	698.7999878
1238.300786	691.4000244
1238.847144	696.0
1239.393445	694.5999756
1239.93969	694.2000122
1240.485879	699.4000244
1241.032011	693.5999756
1241.578087	697.4000244
1242.124106	693.5999756
1242.67007	695.0
1243.215976	696.5999756
1243.761827	699.0
1244.307621	694.7999878
1244.853359	703.0
1245.39904	697.5999756
1245.944665	701.5999756
1246.490234	701.5999756
1247.035746	696.7999878
1247.581203	699.0
1248.126602	699.5999756
1248.671946	696.5999756
1249.217233	695.7999878
1249.762464	703.7999878
1250.307638	697.7999878
1250.852757	703.7999878
1251.397819	702.0
1251.942824	700.4000244
1252.487774	704.2000122
1253.032667	702.5999756
1253.577503	698.4000244
1254.122284	700.5999756
1254.667008	702.5999756
1255.211676	702.4000244
1255.756288	708.0
1256.300843	709.2000122
1256.845342	707.5999756
1257.389785	716.2000122
1257.934172	716.5999756
1258.478502	720.4000244
1259.022776	715.5999756
1259.566994	720.7999878
1260.111156	742.5999756
1260.655261	734.4000244
1261.199311	741.7999878
1261.743304	761.4000244
1262.28724	757.4000244
1262.831121	776.4000244
1263.374945	768.5999756
1263.918713	762.0
1264.462425	748.4000244
1265.006081	734.4000244
1265.54968	733.7999878
1266.093223	724.5999756
1266.636711	721.7999878
1267.180141	714.5999756
1267.723516	718.2000122
1268.266835	715.0
1268.810097	717.7999878
1269.353303	714.4000244
1269.896453	715.0
1270.439547	715.2000122
1270.982584	714.5999756
1271.525566	713.4000244
1272.068491	715.7999878
1272.61136	715.5999756
1273.154173	717.2000122
1273.69693	719.0
1274.239631	717.7999878
1274.782275	716.2000122
1275.324864	717.0
1275.867396	722.7999878
1276.409872	724.5999756
1276.952292	726.5999756
1277.494656	734.7999878
1278.036964	733.4000244
1278.579215	747.7999878
1279.121411	754.7999878
1279.66355	771.2000122
1280.205634	805.7999878
1280.747661	861.7999878
1281.289632	999.4000244
1281.831547	1281.400024
1282.373406	1775.199951
1282.915209	2182.399902
1283.456955	1974.0
1283.998646	1459.199951
1284.540281	1090.599976
1285.081859	915.5999756
1285.623381	842.2000122
1286.164848	795.0
1286.706258	771.2000122
1287.247612	755.0
1287.788911	741.7999878
1288.330153	737.4000244
1288.871339	733.5999756
1289.412469	727.2000122
1289.953543	729.7999878
1290.494561	726.2000122
1291.035523	721.7999878
1291.576428	717.5999756
1292.117278	718.5999756
1292.658072	717.0
1293.19881	714.4000244
1293.739492	715.2000122
1294.280118	716.4000244
1294.820687	712.5999756
1295.361201	711.5999756
1295.901659	713.7999878
1296.442061	715.0
1296.982406	713.0
1297.522696	711.0
1298.06293	712.2000122
1298.603108	708.2000122
1299.143229	710.0
1299.683295	707.7999878
1300.223305	709.4000244
1300.763259	707.7999878
1301.303157	710.5999756
1301.842999	708.5999756
1302.382785	707.7999878
1302.922515	710.7999878
1303.462189	709.7999878
1304.001807	702.7999878
1304.541369	703.0
1305.080875	708.4000244
1305.620326	703.0
1306.15972	707.7999878
1306.699058	700.5999756
1307.238341	709.0
1307.777567	707.0
1308.316738	703.7999878
1308.855853	702.0
1309.394912	701.5999756
1309.933915	704.5999756
1310.472862	701.7999878
1311.011753	702.4000244
1311.550588	701.7999878
1312.089367	700.0
1312.62809	700.7999878
1313.166758	704.0
1313.70537	698.7999878
1314.243925	704.4000244
1314.782425	699.2000122
1315.320869	704.0
1315.859257	698.2000122
1316.397589	700.0
1316.935866	699.7999878
1317.474086	701.7999878
1318.012251	699.5999756
1318.55036	699.5999756
1319.088413	698.7999878
1319.62641	698.0
1320.164351	699.0
1320.702236	707.2000122
1321.240066	702.2000122
1321.777839	700.0
1322.315557	699.7999878
1322.853219	699.5999756
1323.390826	700.2000122
1323.928376	703.4000244
1324.465871	702.2000122
1325.003309	701.5999756
1325.540692	700.5999756
1326.07802	699.4000244
1326.615291	701.4000244
1327.152506	701.2000122
1327.689666	694.2000122
1328.22677	701.7999878
1328.763818	704.0
1329.300811	699.4000244
1329.837747	696.0
1330.374628	698.0
1330.911453	699.2000122
1331.448222	694.2000122
1331.984936	700.5999756
1332.521594	700.0
1333.058196	698.0
1333.594742	700.4000244
1334.131232	699.7999878
1334.667667	699.5999756
1335.204046	698.5999756
1335.740369	699.2000122
1336.276637	698.7999878
1336.812848	699.2000122
1337.349004	696.5999756
1337.885105	705.2000122
1338.421149	696.5999756
1338.957138	697.2000122
1339.493071	696.4000244
1340.028949	704.7999878
1340.56477	697.0
1341.100536	701.2000122
1341.636246	700.0
1342.171901	698.5999756
1342.7075	699.4000244
1343.243043	699.5999756
1343.77853	702.4000244
1344.313962	698.4000244
1344.849338	698.7999878
1345.384659	701.7999878
1345.919923	698.4000244
1346.455133	702.2000122
1346.990286	698.4000244
1347.525384	699.4000244
1348.060426	701.7999878
1348.595412	699.2000122
1349.130343	698.5999756
1349.665218	699.2000122
1350.200037	700.5999756
1350.734801	705.7999878
1351.269509	699.7999878
1351.804162	698.7999878
1352.338758	699.0
1352.8733	698.2000122
1353.407785	702.5999756
1353.942215	703.5999756
1354.476589	705.0
1355.010908	699.2000122
1355.545171	700.2000122
1356.079379	703.2000122
1356.61353	702.4000244
1357.147627	702.7999878
1357.681667	702.2000122
1358.215652	703.5999756
1358.749582	707.2000122
1359.283456	704.4000244
1359.817274	702.2000122
1360.351037	701.5999756
1360.884744	705.4000244
1361.418395	702.5999756
1361.951991	707.0
1362.485531	705.5999756
1363.019016	709.4000244
1363.552445	711.0
1364.085819	713.7999878
1364.619137	711.4000244
1365.1524	711.2000122
1365.685607	712.4000244
1366.218758	714.7999878
1366.751854	709.7999878
1367.284894	709.7999878
1367.817879	712.7999878
1368.350808	718.7999878
1368.883682	726.5999756
1369.4165	753.4000244
1369.949263	760.0
1370.48197	738.7999878
1371.014622	722.5999756
1371.547218	712.7999878
1372.079758	715.4000244
1372.612244	715.7999878
1373.144673	717.4000244
1373.677047	713.4000244
1374.209366	719.5999756
1374.741629	717.7999878
1375.273836	722.4000244
1375.805989	720.2000122
1376.338085	721.7999878
1376.870126	724.2000122
1377.402112	722.2000122
1377.934042	728.0
1378.465917	727.4000244
1378.997736	731.5999756
1379.5295	732.4000244
1380.061208	735.0
1380.592861	740.0
1381.124459	746.7999878
1381.656	755.0
1382.187487	760.2000122
1382.718918	769.4000244
1383.250294	786.4000244
1383.781614	808.7999878
1384.312879	845.7999878
1384.844088	904.2000122
1385.375242	1008.0
1385.90634	1239.800049
1386.437383	1811.0
1386.968371	2983.399902
1387.499303	3802.800049
1388.03018	2850.199951
1388.561001	1678.199951
1389.091767	1166.800049
1389.622478	959.2000122
1390.153133	879.7999878
1390.683733	823.2000122
1391.214277	794.5999756
1391.744766	772.2000122
1392.2752	757.5999756
1392.805578	754.4000244
1393.335901	745.5999756
1393.866168	741.2000122
1394.396381	732.5999756
1394.926537	732.7999878
1395.456639	727.7999878
1395.986685	729.2000122
1396.516675	731.5999756
1397.046611	731.2000122
1397.576491	733.4000244
1398.106315	726.0
1398.636084	725.5999756
1399.165798	725.7999878
1399.695457	724.2000122
1400.22506	721.4000244
1400.754608	721.5999756
1401.284101	722.5999756
1401.813538	722.5999756
1402.34292	722.0
1402.872247	725.4000244
1403.401518	725.0
1403.930734	730.4000244
1404.459895	730.7999878
1404.989	735.2000122
1405.51805	740.5999756
1406.047045	748.2000122
1406.575984	761.4000244
1407.104869	774.5999756
1407.633697	790.2000122
1408.162471	814.2000122
1408.691189	830.7999878
1409.219852	832.5999756
1409.74846	816.0
1410.277013	790.7999878
1410.80551	761.7999878
1411.333952	747.7999878
1411.862339	731.4000244
1412.39067	722.5999756
1412.918946	719.5999756
1413.447167	717.7999878
1413.975333	711.7999878
1414.503444	712.2000122
1415.031499	707.7999878
1415.559499	718.0
1416.087444	705.0
1416.615333	704.7999878
1417.143167	706.4000244
1417.670947	702.0
1418.19867	703.7999878
1418.726339	701.2000122
1419.253952	704.7999878
1419.781511	703.4000244
1420.309014	698.0
1420.836461	703.4000244
1421.363854	696.0
1421.891191	699.4000244
1422.418474	701.4000244
1422.945701	700.2000122
1423.472872	702.5999756
1423.999989	699.2000122
1424.52705	699.0
1425.054057	701.0
1425.581008	696.7999878
1426.107904	697.7999878
1426.634745	697.7999878
1427.16153	701.2000122
1427.688261	698.7999878
1428.214936	696.5999756
1428.741556	694.4000244
1429.268121	696.5999756
1429.794631	701.2000122
1430.321085	695.7999878
1430.847485	695.2000122
1431.373829	693.7999878
1431.900118	694.7999878
1432.426353	692.7999878
1432.952532	692.0
1433.478655	692.0
1434.004724	695.2000122
1434.530738	698.5999756
1435.056696	689.2000122
1435.5826	690.2000122
1436.108448	694.2000122
1436.634241	694.7999878
1437.159979	694.5999756
1437.685662	690.5999756
1438.21129	690.4000244
1438.736863	691.7999878
1439.262381	692.4000244
1439.787843	696.2000122
1440.313251	691.0
1440.838603	694.0
1441.3639	689.7999878
1441.889143	693.7999878
1442.41433	693.5999756
1442.939462	693.7999878
1443.464539	694.7999878
1443.989561	691.7999878
1444.514528	690.5999756
1445.03944	692.5999756
1445.564297	692.2000122
1446.089099	693.5999756
1446.613846	693.0
1447.138537	692.2000122
1447.663174	694.7999878
1448.187756	696.5999756
1448.712282	691.0
1449.236754	688.7999878
1449.761171	693.4000244
1450.285532	691.2000122
1450.809839	691.2000122
1451.33409	686.2000122
1451.858287	689.2000122
1452.382428	690.5999756
1452.906515	694.5999756
1453.430546	689.5999756
1453.954523	689.0
1454.478444	688.7999878
1455.002311	687.4000244
1455.526123	691.0
1456.049879	692.7999878
1456.573581	688.4000244
1457.097227	691.5999756
1457.620819	689.0
1458.144356	693.7999878
1458.667837	689.5999756
1459.191264	688.2000122
1459.714636	692.0
1460.237952	695.0
1460.761214	685.7999878
1461.284421	692.4000244
1461.807573	689.7999878
1462.33067	689.0
1462.853712	694.4000244
1463.376699	693.0
1463.899632	689.4000244
1464.422509	689.5999756
1464.945331	691.2000122
1465.468099	692.7999878
1465.990811	690.7999878
1466.513469	690.2000122
1467.036071	687.0
1467.558619	690.2000122
1468.081112	692.0
1468.60355	694.2000122
1469.125933	689.4000244
1469.648261	690.2000122
1470.170534	692.7999878
1470.692752	686.0
1471.214916	688.0
1471.737024	689.5999756
1472.259078	690.5999756
1472.781077	690.2000122
1473.303021	687.2000122
1473.82491	686.4000244
1474.346744	687.0
1474.868523	687.7999878
1475.390248	689.4000244
1475.911917	689.4000244
1476.433532	687.2000122
1476.955092	687.5999756
1477.476597	683.5999756
1477.998047	689.7999878
1478.519442	691.2000122
1479.040783	685.5999756
1479.562068	689.5999756
1480.083299	685.5999756
1480.604475	687.0
1481.125596	689.2000122
1481.646663	689.0
1482.167674	686.4000244
1482.688631	689.2000122
1483.209533	686.2000122
1483.73038	684.5999756
1484.251172	686.2000122
1484.771909	686.7999878
1485.292592	687.2000122
1485.81322	686.2000122
1486.333793	686.0
1486.854311	688.5999756
1487.374775	683.5999756
1487.895183	685.4000244
1488.415537	685.0
1488.935836	685.0
1489.456081	685.0
1489.97627	685.5999756
1490.496405	686.2000122
1491.016485	685.5999756
1491.536511	684.5999756
1492.056481	682.2000122
1492.576397	684.0
1493.096258	688.2000122
1493.616064	687.7999878
1494.135816	686.7999878
1494.655513	687.7999878
1495.175155	682.0
1495.694742	683.0
1496.214274	683.7999878
1496.733752	682.4000244
1497.253175	686.0
1497.772544	686.7999878
1498.291858	683.4000244
1498.811116	688.0
1499.330321	686.7999878
1499.84947	688.5999756
1500.368565	683.5999756
1500.887605	687.7999878
1501.406591	682.0
1501.925521	686.4000244
1502.444397	687.0
1502.963219	685.2000122
1503.481985	683.4000244
1504.000697	683.0
1504.519355	688.7999878
1505.037957	686.4000244
1505.556505	683.7999878
1506.074999	684.4000244
1506.593437	684.4000244
1507.111821	680.2000122
1507.63015	684.0
1508.148425	684.5999756
1508.666645	682.7999878
1509.18481	682.7999878
1509.702921	682.7999878
1510.220977	682.5999756
1510.738979	690.2000122
1511.256925	684.5999756
1511.774817	685.7999878
1512.292655	683.4000244
1512.810438	684.4000244
1513.328166	687.2000122
1513.84584	687.4000244
1514.363459	684.2000122
1514.881023	683.7999878
1515.398533	687.4000244
1515.915988	685.0
1516.433389	683.4000244
1516.950734	681.7999878
1517.468026	685.2000122
1517.985263	684.0
1518.502445	682.7999878
1519.019572	685.7999878
1519.536645	688.5999756
1520.053664	682.5999756
1520.570628	685.4000244
1521.087537	688.4000244
1521.604392	685.7999878
1522.121192	685.4000244
1522.637937	688.2000122
1523.154628	685.4000244
1523.671265	687.7999878
1524.187847	686.7999878
1524.704374	682.4000244
1525.220847	686.7999878
1525.737265	683.0
1526.253629	689.5999756
1526.769938	690.2000122
1527.286192	685.0
1527.802392	685.5999756
1528.318538	684.0
1528.834629	682.5999756
1529.350666	683.7999878
1529.866648	687.2000122
1530.382575	686.5999756
1530.898448	686.7999878
1531.414266	685.7999878
1531.93003	688.2000122
1532.44574	686.4000244
1532.961395	686.0
1533.476995	684.7999878
1533.992541	686.2000122
1534.508033	684.4000244
1535.02347	691.2000122
1535.538852	685.0
1536.05418	687.2000122
1536.569454	684.5999756
1537.084673	687.0
1537.599837	686.4000244
1538.114947	689.2000122
1538.630003	686.2000122
1539.145004	686.0
1539.659951	683.0
1540.174843	689.0
1540.689681	684.2000122
1541.204465	684.7999878
1541.719194	688.2000122
1542.233868	689.5999756
1542.748488	682.0
1543.263054	684.5999756
1543.777565	688.0
1544.292022	685.2000122
1544.806424	686.0
1545.320772	688.4000244
1545.835066	684.7999878
1546.349305	685.2000122
1546.863489	683.4000244
1547.37762	687.7999878
1547.891696	686.5999756
1548.405717	684.5999756
1548.919684	685.4000244
1549.433597	683.2000122
1549.947455	684.5999756
1550.461259	681.7999878
1550.975009	684.0
1551.488704	685.4000244
1552.002345	680.5999756
1552.515931	680.7999878
1553.029463	683.4000244
1553.542941	684.0
1554.056364	682.5999756
1554.569733	684.2000122
1555.083048	685.0
1555.596308	683.5999756
1556.109514	682.7999878
1556.622665	683.2000122
1557.135762	686.0
1557.648805	687.7999878
1558.161794	686.5999756
1558.674728	686.2000122
1559.187608	682.2000122
1559.700433	683.7999878
1560.213205	687.0
1560.725921	684.5999756
1561.238584	687.5999756
1561.751192	685.4000244
1562.263746	686.7999878
1562.776246	683.4000244
1563.288691	686.7999878
1563.801082	685.4000244
1564.313419	683.7999878
1564.825701	689.4000244
1565.337929	686.0
1565.850103	685.4000244
1566.362223	685.5999756
1566.874288	687.2000122
1567.386299	688.7999878
1567.898256	685.4000244
1568.410158	686.2000122
1568.922007	685.5999756
1569.4338	685.7999878
1569.94554	686.7999878
1570.457226	687.0
1570.968857	680.4000244
1571.480434	685.2000122
1571.991956	687.5999756
1572.503425	685.2000122
1573.014839	685.5999756
1573.526199	684.5999756
1574.037505	683.4000244
1574.548756	683.4000244
1575.059953	685.5999756
1575.571096	684.0
1576.082185	686.0
1576.59322	684.7999878
1577.1042	683.2000122
1577.615126	685.5999756
1578.125998	684.2000122
1578.636816	689.4000244
1579.14758	686.5999756
1579.658289	685.0
1580.168944	689.0
1580.679545	685.0
1581.190092	686.7999878
1581.700585	686.2000122
1582.211023	687.5999756
1582.721407	687.5999756
1583.231737	689.2000122
1583.742013	688.0
1584.252235	688.4000244
1584.762403	686.2000122
1585.272516	685.4000244
1585.782575	685.4000244
1586.292581	684.2000122
1586.802532	685.2000122
1587.312428	687.7999878
1587.822271	684.7999878
1588.33206	684.4000244
1588.841794	688.0
1589.351474	684.7999878
1589.8611	688.2000122
1590.370672	684.7999878
1590.88019	685.5999756
1591.389654	684.4000244
1591.899064	686.4000244
1592.408419	685.7999878
