1042.452273	7050.600098
1043.018714	7072.0
1043.585098	7088.399902
1044.151424	7073.600098
1044.717692	7012.799805
1045.283903	7053.200195
1045.850056	7027.399902
1046.416151	7037.600098
1046.982188	7047.399902
1047.548167	6996.200195
1048.114089	7057.200195
1048.679953	7075.200195
1049.24576	7035.0
1049.811509	7062.200195
1050.3772	7050.399902
1050.942833	6979.799805
1051.508408	6983.600098
1052.073926	6981.600098
1052.639387	7003.799805
1053.204789	6992.600098
1053.770134	7060.600098
1054.335421	7016.200195
1054.900651	7027.0
1055.465823	6976.799805
1056.030937	7017.0
1056.595993	6995.0
1057.160992	6998.200195
1057.725934	7017.600098
1058.290817	6995.399902
1058.855643	6980.399902
1059.420411	7002.200195
1059.985122	6948.399902
1060.549775	7020.0
1061.114371	6965.600098
1061.678908	6999.399902
1062.243389	7006.799805
1062.807811	6942.399902
1063.372176	6927.0
1063.936483	6905.0
1064.500733	6943.799805
1065.064925	6924.600098
1065.62906	6919.799805
1066.193137	6976.799805
1066.757156	6952.600098
1067.321118	6945.799805
1067.885022	6897.399902
1068.448869	6915.600098
1069.012658	6929.600098
1069.57639	6939.0
1070.140063	6899.399902
1070.70368	6937.200195
1071.267239	6905.600098
1071.83074	6882.600098
1072.394184	6954.0
1072.95757	6919.399902
1073.520899	6849.600098
1074.08417	6959.200195
1074.647383	6888.0
1075.21054	6860.799805
1075.773638	6869.799805
1076.336679	6858.799805
1076.899663	6839.200195
1077.462589	6869.799805
1078.025457	6822.200195
1078.588268	6831.0
1079.151022	6785.399902
1079.713718	6846.399902
1080.276356	6824.200195
1080.838937	6825.0
1081.401461	6810.0
1081.963927	6844.799805
1082.526336	6755.399902
1083.088687	6832.399902
1083.650981	6779.0
1084.213217	6823.399902
1084.775396	6748.600098
1085.337517	6873.399902
1085.899581	6742.799805
1086.461587	6758.0
1087.023536	6712.399902
1087.585428	6782.600098
1088.147262	6728.799805
1088.709039	6772.799805
1089.270758	6703.200195
1089.83242	6788.600098
1090.394024	6664.399902
1090.955571	6729.0
1091.517061	6687.600098
1092.078493	6689.799805
1092.639868	6651.0
1093.201185	6712.200195
1093.762445	6663.200195
1094.323648	6717.399902
1094.884793	6633.0
1095.445881	6750.0
1096.006911	6622.399902
1096.567884	6674.0
1097.1288	6572.200195
1097.689659	6669.399902
1098.25046	6610.600098
1098.811203	6671.399902
1099.37189	6621.200195
1099.932518	6684.200195
1100.49309	6553.799805
1101.053604	6605.399902
1101.614061	6554.799805
1102.174461	6626.200195
1102.734803	6526.200195
1103.295088	6598.0
1103.855316	6559.600098
1104.415486	6582.799805
1104.975599	6522.600098
1105.535655	6524.600098
1106.095653	6538.399902
1106.655594	6555.200195
1107.215478	6484.399902
1107.775305	6518.600098
1108.335074	6481.600098
1108.894786	6564.200195
1109.45444	6455.200195
1110.014038	6553.600098
1110.573578	6463.0
1111.133061	6524.399902
1111.692486	6417.799805
1112.251854	6461.200195
1112.811165	6425.200195
1113.370419	6469.600098
1113.929616	6455.200195
1114.488755	6500.0
1115.047837	6414.200195
1115.606862	6489.399902
1116.16583	6407.200195
1116.72474	6444.600098
1117.283593	6434.600098
1117.842389	6452.600098
1118.401128	6452.799805
1118.959809	6438.0
1119.518433	6398.200195
1120.077	6420.600098
1120.63551	6422.799805
1121.193963	6425.600098
1121.752358	6362.399902
1122.310697	6422.799805
1122.868978	6373.600098
1123.427202	6405.0
1123.985368	6332.600098
1124.543478	6390.799805
1125.10153	6374.399902
1125.659526	6362.399902
1126.217464	6392.399902
1126.775345	6389.799805
1127.333168	6384.600098
1127.890935	6382.799805
1128.448644	6320.799805
1129.006297	6319.600098
1129.563892	6334.799805
1130.12143	6314.399902
1130.678911	6355.0
1131.236335	6351.600098
1131.793701	6349.200195
1132.351011	6340.799805
1132.908263	6327.600098
1133.465458	6308.0
1134.022597	6375.399902
1134.579678	6332.600098
1135.136702	6304.200195
1135.693669	6302.600098
1136.250578	6303.399902
1136.807431	6271.600098
1137.364227	6357.799805
1137.920965	6291.200195
1138.477647	6305.399902
1139.034271	6293.399902
1139.590839	6328.0
1140.147349	6308.200195
1140.703802	6308.600098
1141.260198	6299.399902
1141.816537	6305.200195
1142.37282	6285.200195
1142.929045	6329.799805
1143.485213	6280.0
1144.041323	6312.600098
1144.597377	6267.399902
1145.153374	6296.200195
1145.709314	6254.0
1146.265197	6282.0
1146.821023	6281.600098
1147.376792	6259.0
1147.932503	6294.399902
1148.488158	6313.0
1149.043756	6277.799805
1149.599297	6299.399902
1150.154781	6265.600098
1150.710207	6298.200195
1151.265577	6295.600098
1151.82089	6299.799805
1152.376146	6280.600098
1152.931345	6322.399902
1153.486487	6224.600098
1154.041572	6265.399902
1154.5966	6283.0
1155.151571	6307.200195
1155.706485	6252.399902
1156.261342	6264.600098
1156.816142	6243.600098
1157.370885	6272.0
1157.925572	6276.399902
1158.480201	6336.799805
1159.034774	6255.799805
1159.589289	6261.600098
1160.143748	6254.799805
1160.698149	6257.600098
1161.252494	6259.799805
1161.806782	6257.399902
1162.361013	6253.0
1162.915187	6289.799805
1163.469304	6214.0
1164.023364	6208.600098
1164.577368	6214.799805
1165.131314	6222.399902
1165.685204	6186.200195
1166.239036	6208.0
1166.792812	6220.799805
1167.346531	6268.0
1167.900193	6209.399902
1168.453798	6210.600098
1169.007347	6253.0
1169.560838	6246.200195
1170.114273	6235.0
1170.66765	6184.200195
1171.220971	6208.200195
1171.774235	6189.799805
1172.327443	6208.399902
1172.880593	6184.600098
1173.433687	6202.799805
1173.986723	6185.399902
1174.539703	6184.799805
1175.092626	6189.799805
1175.645493	6209.399902
1176.198302	6177.200195
1176.751055	6164.799805
1177.303751	6159.200195
1177.85639	6206.600098
1178.408972	6134.399902
1178.961498	6182.600098
1179.513966	6156.200195
1180.066378	6139.200195
1180.618733	6116.600098
1181.171032	6145.600098
1181.723273	6149.399902
1182.275458	6171.399902
1182.827586	6093.399902
1183.379657	6171.0
1183.931672	6095.600098
1184.48363	6132.200195
1185.035531	6132.200195
1185.587375	6121.0
1186.139162	6107.0
1186.690893	6140.799805
1187.242567	6092.799805
1187.794184	6118.0
1188.345745	6064.600098
1188.897249	6109.799805
1189.448696	6094.600098
1190.000086	6112.799805
1190.55142	6078.600098
1191.102697	6133.200195
1191.653918	6061.200195
1192.205081	6132.200195
1192.756188	6072.799805
1193.307238	6095.399902
1193.858232	6074.799805
1194.409169	6047.200195
1194.960049	6047.799805
1195.510872	6067.0
1196.061639	6101.799805
1196.612349	6079.600098
1197.163003	6032.399902
1197.713599	6059.200195
1198.264139	6052.200195
1198.814623	6012.600098
1199.36505	6002.399902
1199.91542	6038.600098
1200.465734	6035.200195
1201.01599	6022.200195
1201.566191	6028.200195
1202.116334	6008.399902
1202.666421	6033.600098
1203.216452	6002.0
1203.766425	6031.0
1204.316343	5996.600098
1204.866203	6041.200195
1205.416007	5991.799805
1205.965754	6017.399902
1206.515445	5988.600098
1207.065079	5971.600098
1207.614657	5980.200195
1208.164177	5994.0
1208.713642	5960.600098
1209.26305	5953.200195
1209.812401	5958.399902
1210.361695	5952.0
1210.910933	5938.0
1211.460115	5934.0
1212.00924	5899.399902
1212.558308	5904.399902
1213.10732	5942.399902
1213.656275	5916.399902
1214.205174	5928.0
1214.754016	5885.200195
1215.302801	5914.600098
1215.85153	5916.0
1216.400203	5918.399902
1216.948819	5889.399902
1217.497378	5941.399902
1218.045881	5867.200195
1218.594327	5931.799805
1219.142717	5887.200195
1219.691051	5892.399902
1220.239327	5869.799805
1220.787548	5885.600098
1221.335712	5864.600098
1221.883819	5882.399902
1222.43187	5895.600098
1222.979864	5874.0
1223.527802	5814.799805
1224.075683	5833.0
1224.623508	5884.799805
1225.171277	5860.399902
1225.718989	5879.799805
1226.266644	5885.399902
1226.814243	5875.799805
1227.361786	5861.600098
1227.909272	5827.200195
1228.456702	5835.600098
1229.004075	5851.399902
1229.551392	5843.200195
1230.098652	5839.399902
1230.645856	5846.600098
1231.193003	5874.399902
1231.740094	5791.399902
1232.287129	5831.799805
1232.834107	5849.399902
1233.381029	5844.799805
1233.927894	5847.399902
1234.474703	5847.0
1235.021455	5782.600098
1235.568151	5811.0
1236.114791	5808.600098
1236.661374	5850.399902
1237.207901	5811.600098
1237.754372	5824.0
1238.300786	5813.399902
1238.847144	5786.200195
1239.393445	5843.0
1239.93969	5803.0
1240.485879	5799.600098
1241.032011	5799.0
1241.578087	5780.399902
1242.124106	5789.799805
1242.67007	5827.0
1243.215976	5811.200195
1243.761827	5784.200195
1244.307621	5772.600098
1244.853359	5802.600098
1245.39904	5735.799805
1245.944665	5792.200195
1246.490234	5782.0
1247.035746	5795.200195
1247.581203	5774.600098
1248.126602	5782.0
1248.671946	5730.399902
1249.217233	5755.399902
1249.762464	5778.0
1250.307638	5762.799805
1250.852757	5729.200195
1251.397819	5761.200195
1251.942824	5740.600098
1252.487774	5743.200195
1253.032667	5734.600098
1253.577503	5763.399902
1254.122284	5732.799805
1254.667008	5720.399902
1255.211676	5776.399902
1255.756288	5731.799805
1256.300843	5729.600098
1256.845342	5731.0
1257.389785	5719.0
1257.934172	5711.600098
1258.478502	5705.600098
1259.022776	5731.799805
1259.566994	5717.399902
1260.111156	5688.200195
1260.655261	5671.399902
1261.199311	5706.799805
1261.743304	5680.799805
1262.28724	5675.799805
1262.831121	5709.399902
1263.374945	5715.200195
1263.918713	5682.200195
1264.462425	5681.399902
1265.006081	5756.600098
1265.54968	5742.799805
1266.093223	5710.0
1266.636711	5674.600098
1267.180141	5675.600098
1267.723516	5665.600098
1268.266835	5737.600098
1268.810097	5692.0
1269.353303	5656.0
1269.896453	5673.600098
1270.439547	5669.0
1270.982584	5622.399902
1271.525566	5686.799805
1272.068491	5669.200195
1272.61136	5728.0
1273.154173	5673.0
1273.69693	5637.799805
1274.239631	5647.200195
1274.782275	5652.0
1275.324864	5666.600098
1275.867396	5651.399902
1276.409872	5628.799805
1276.952292	5659.600098
1277.494656	5621.200195
1278.036964	5644.0
1278.579215	5646.600098
1279.121411	5642.799805
1279.66355	5592.0
1280.205634	5624.200195
1280.747661	5629.399902
1281.289632	5636.399902
1281.831547	5606.399902
1282.373406	5652.600098
1282.915209	5644.200195
1283.456955	5608.799805
1283.998646	5655.399902
1284.540281	5708.600098
1285.081859	6007.600098
1285.623381	6354.0
1286.164848	6037.200195
1286.706258	5709.600098
1287.247612	5637.0
1287.788911	5606.600098
1288.330153	5632.0
1288.871339	5567.399902
1289.412469	5612.399902
1289.953543	5598.799805
1290.494561	5605.600098
1291.035523	5592.799805
1291.576428	5572.399902
1292.117278	5570.600098
1292.658072	5576.799805
1293.19881	5612.0
1293.739492	5579.799805
1294.280118	5576.799805
1294.820687	5552.0
1295.361201	5570.200195
1295.901659	5550.600098
1296.442061	5560.200195
1296.982406	5541.600098
1297.522696	5579.600098
1298.06293	5537.399902
1298.603108	5602.600098
1299.143229	5552.200195
1299.683295	5539.399902
1300.223305	5536.799805
1300.763259	5554.200195
1301.303157	5486.799805
1301.842999	5509.600098
1302.382785	5538.799805
1302.922515	5521.399902
1303.462189	5531.799805
1304.001807	5564.399902
1304.541369	5538.399902
1305.080875	5489.200195
1305.620326	5524.600098
1306.15972	5493.399902
1306.699058	5516.799805
1307.238341	5464.799805
1307.777567	5518.600098
1308.316738	5490.399902
1308.855853	5540.200195
1309.394912	5468.799805
1309.933915	5520.0
1310.472862	5471.399902
1311.011753	5526.200195
1311.550588	5450.399902
1312.089367	5473.799805
1312.62809	5472.600098
1313.166758	5517.200195
1313.70537	5493.600098
1314.243925	5512.600098
1314.782425	5504.399902
1315.320869	5484.799805
1315.859257	5505.399902
1316.397589	5472.799805
1316.935866	5475.600098
1317.474086	5446.399902
1318.012251	5470.399902
1318.55036	5468.600098
1319.088413	5480.399902
1319.62641	5421.399902
1320.164351	5472.0
1320.702236	5470.399902
1321.240066	5452.0
1321.777839	5431.0
1322.315557	5468.600098
1322.853219	5448.600098
1323.390826	5500.600098
1323.928376	5426.600098
1324.465871	5450.799805
1325.003309	5451.399902
1325.540692	5444.200195
1326.07802	5441.200195
1326.615291	5448.200195
1327.152506	5398.399902
1327.689666	5416.200195
1328.22677	5452.200195
1328.763818	5399.600098
1329.300811	5440.200195
1329.837747	5425.799805
1330.374628	5404.200195
1330.911453	5382.200195
1331.448222	5447.399902
1331.984936	5411.0
1332.521594	5448.399902
1333.058196	5408.200195
1333.594742	5402.600098
1334.131232	5405.200195
1334.667667	5383.600098
1335.204046	5382.799805
1335.740369	5407.399902
1336.276637	5393.799805
1336.812848	5404.200195
1337.349004	5436.200195
1337.885105	5431.600098
1338.421149	5417.600098
1338.957138	5385.799805
1339.493071	5400.0
1340.028949	5381.200195
1340.56477	5375.200195
1341.100536	5378.0
1341.636246	5377.399902
1342.171901	5366.200195
1342.7075	5404.200195
1343.243043	5368.799805
1343.77853	5370.0
1344.313962	5382.799805
1344.849338	5399.799805
1345.384659	5331.399902
1345.919923	5362.200195
1346.455133	5360.0
1346.990286	5373.200195
1347.525384	5380.200195
1348.060426	5347.399902
1348.595412	5374.399902
1349.130343	5369.600098
1349.665218	5368.200195
1350.200037	5354.600098
1350.734801	5358.399902
1351.269509	5329.0
1351.804162	5376.0
1352.338758	5342.399902
1352.8733	5336.200195
1353.407785	5336.200195
1353.942215	5341.600098
1354.476589	5331.399902
1355.010908	5335.0
1355.545171	5327.200195
1356.079379	5357.0
1356.61353	5329.799805
1357.147627	5325.200195
1357.681667	5320.799805
1358.215652	5301.799805
1358.749582	5318.399902
1359.283456	5298.399902
1359.817274	5318.600098
1360.351037	5274.200195
1360.884744	5296.399902
1361.418395	5290.600098
1361.951991	5300.200195
1362.485531	5276.799805
1363.019016	5327.0
1363.552445	5255.200195
1364.085819	5331.799805
1364.619137	5274.399902
1365.1524	5281.200195
1365.685607	5273.600098
1366.218758	5295.600098
1366.751854	5308.799805
1367.284894	5261.799805
1367.817879	5310.799805
1368.350808	5280.600098
1368.883682	5281.200195
1369.4165	5267.600098
1369.949263	5287.799805
1370.48197	5286.200195
1371.014622	5333.200195
1371.547218	5231.799805
1372.079758	5260.200195
1372.612244	5237.399902
1373.144673	5270.399902
1373.677047	5229.0
1374.209366	5252.0
1374.741629	5250.799805
1375.273836	5301.399902
1375.805989	5262.200195
1376.338085	5254.200195
1376.870126	5250.799805
1377.402112	5225.799805
1377.934042	5207.0
1378.465917	5231.399902
1378.997736	5270.200195
1379.5295	5216.399902
1380.061208	5271.200195
1380.592861	5228.200195
1381.124459	5231.200195
1381.656	5226.799805
1382.187487	5241.799805
1382.718918	5207.200195
1383.250294	5232.0
1383.781614	5219.0
1384.312879	5241.799805
1384.844088	5195.0
1385.375242	5233.600098
1385.90634	5217.799805
1386.437383	5240.200195
1386.968371	5249.0
1387.499303	5284.200195
1388.03018	5428.0
1388.561001	6171.600098
1389.091767	6497.399902
1389.622478	5512.200195
1390.153133	5301.600098
1390.683733	5239.799805
1391.214277	5226.200195
1391.744766	5165.200195
1392.2752	5223.399902
1392.805578	5184.600098
1393.335901	5200.399902
1393.866168	5196.600098
1394.396381	5202.200195
1394.926537	5194.399902
1395.456639	5185.799805
1395.986685	5178.799805
1396.516675	5144.0
1397.046611	5232.399902
1397.576491	5186.0
1398.106315	5179.200195
1398.636084	5187.399902
1399.165798	5208.799805
1399.695457	5163.399902
1400.22506	5174.600098
1400.754608	5163.399902
1401.284101	5193.799805
1401.813538	5142.200195
1402.34292	5172.0
1402.872247	5200.399902
1403.401518	5141.0
1403.930734	5197.399902
1404.459895	5186.200195
1404.989	5178.600098
1405.51805	5169.0
1406.047045	5194.600098
1406.575984	5138.0
1407.104869	5201.799805
1407.633697	5124.799805
1408.162471	5169.399902
1408.691189	5164.0
1409.219852	5171.200195
1409.74846	5222.0
1410.277013	5251.399902
1410.80551	5203.200195
1411.333952	5155.799805
1411.862339	5173.600098
1412.39067	5162.0
1412.918946	5163.200195
1413.447167	5133.799805
1413.975333	5154.600098
1414.503444	5122.399902
1415.031499	5171.200195
1415.559499	5137.399902
1416.087444	5133.600098
1416.615333	5092.600098
1417.143167	5152.799805
1417.670947	5135.600098
1418.19867	5141.399902
1418.726339	5099.799805
1419.253952	5156.399902
1419.781511	5129.200195
1420.309014	5101.200195
1420.836461	5130.0
1421.363854	5144.399902
1421.891191	5178.799805
1422.418474	5101.0
1422.945701	5124.799805
1423.472872	5109.200195
1423.999989	5094.0
1424.52705	5116.799805
1425.054057	5123.600098
1425.581008	5135.200195
1426.107904	5137.600098
1426.634745	5122.399902
1427.16153	5088.0
1427.688261	5107.200195
1428.214936	5124.399902
1428.741556	5097.200195
1429.268121	5083.600098
1429.794631	5110.200195
1430.321085	5069.0
1430.847485	5078.600098
1431.373829	5097.399902
1431.900118	5066.600098
1432.426353	5093.200195
1432.952532	5110.0
1433.478655	5064.0
1434.004724	5043.600098
1434.530738	5085.200195
1435.056696	5049.600098
1435.5826	5087.200195
1436.108448	5057.799805
1436.634241	5037.600098
1437.159979	5039.600098
1437.685662	5055.799805
1438.21129	5047.799805
1438.736863	5080.799805
1439.262381	5036.0
1439.787843	5043.399902
1440.313251	5049.0
1440.838603	5032.799805
1441.3639	5031.799805
1441.889143	5008.799805
1442.41433	5077.0
1442.939462	5015.799805
1443.464539	4999.600098
1443.989561	5016.399902
1444.514528	5013.799805
1445.03944	5038.399902
1445.564297	4999.0
1446.089099	4994.0
1446.613846	5018.0
1447.138537	5010.399902
1447.663174	5033.600098
1448.187756	5015.0
1448.712282	4996.399902
1449.236754	4994.0
1449.761171	4987.200195
1450.285532	4987.799805
1450.809839	4968.200195
1451.33409	4983.600098
1451.858287	4995.399902
1452.382428	4976.0
1452.906515	4978.600098
1453.430546	4975.799805
1453.954523	4956.0
1454.478444	4971.0
1455.002311	4964.799805
1455.526123	4948.600098
1456.049879	4966.799805
1456.573581	4965.600098
1457.097227	4948.200195
1457.620819	4975.399902
1458.144356	4945.399902
1458.667837	4964.799805
1459.191264	4953.399902
1459.714636	4948.799805
1460.237952	4920.399902
1460.761214	4987.0
1461.284421	4990.600098
1461.807573	4960.600098
1462.33067	4939.0
1462.853712	4922.799805
1463.376699	4946.399902
1463.899632	4962.200195
1464.422509	4914.399902
1464.945331	4917.200195
1465.468099	4918.200195
1465.990811	4937.799805
1466.513469	4911.0
1467.036071	4895.200195
1467.558619	4930.399902
1468.081112	4919.600098
1468.60355	4927.600098
1469.125933	4897.399902
1469.648261	4907.200195
1470.170534	4919.0
1470.692752	4901.399902
1471.214916	4898.200195
1471.737024	4863.399902
1472.259078	4934.600098
1472.781077	4870.0
1473.303021	4870.200195
1473.82491	4855.0
1474.346744	4891.600098
1474.868523	4846.799805
1475.390248	4892.600098
1475.911917	4877.600098
1476.433532	4897.200195
1476.955092	4842.399902
1477.476597	4852.0
1477.998047	4852.399902
1478.519442	4827.399902
1479.040783	4870.600098
1479.562068	4837.600098
1480.083299	4845.200195
1480.604475	4837.399902
1481.125596	4860.799805
1481.646663	4842.799805
1482.167674	4864.0
1482.688631	4845.799805
1483.209533	4842.0
1483.73038	4836.799805
1484.251172	4803.200195
1484.771909	4815.200195
1485.292592	4808.600098
1485.81322	4824.600098
1486.333793	4789.799805
1486.854311	4806.600098
1487.374775	4793.200195
1487.895183	4796.600098
1488.415537	4810.600098
1488.935836	4808.399902
1489.456081	4763.200195
1489.97627	4786.200195
1490.496405	4750.399902
1491.016485	4807.200195
1491.536511	4766.0
1492.056481	4778.200195
1492.576397	4767.399902
1493.096258	4751.0
1493.616064	4763.600098
1494.135816	4760.799805
1494.655513	4779.200195
1495.175155	4761.200195
1495.694742	4765.399902
1496.214274	4711.600098
1496.733752	4766.0
1497.253175	4804.200195
1497.772544	4762.399902
1498.291858	4746.0
1498.811116	4726.200195
1499.330321	4759.600098
1499.84947	4747.200195
1500.368565	4771.0
1500.887605	4743.399902
1501.406591	4739.0
1501.925521	4728.200195
1502.444397	4747.799805
1502.963219	4750.0
1503.481985	4727.200195
1504.000697	4707.600098
1504.519355	4718.799805
1505.037957	4738.399902
1505.556505	4713.200195
1506.074999	4700.0
1506.593437	4717.799805
1507.111821	4736.399902
1507.63015	4703.399902
1508.148425	4721.0
1508.666645	4705.799805
1509.18481	4693.0
1509.702921	4722.0
1510.220977	4678.600098
1510.738979	4694.200195
1511.256925	4686.399902
1511.774817	4719.600098
1512.292655	4721.799805
1512.810438	4699.0
1513.328166	4665.200195
1513.84584	4695.399902
1514.363459	4670.200195
1514.881023	4712.600098
1515.398533	4685.600098
1515.915988	4687.799805
1516.433389	4685.0
1516.950734	4677.0
1517.468026	4658.0
1517.985263	4685.799805
1518.502445	4674.399902
1519.019572	4681.799805
1519.536645	4680.0
1520.053664	4642.799805
1520.570628	4656.200195
1521.087537	4622.0
1521.604392	4669.200195
1522.121192	4680.200195
1522.637937	4702.799805
1523.154628	4669.399902
1523.671265	4650.200195
1524.187847	4650.399902
1524.704374	4643.399902
1525.220847	4682.600098
1525.737265	4660.0
1526.253629	4647.600098
1526.769938	4644.0
1527.286192	4624.399902
1527.802392	4647.399902
1528.318538	4682.799805
1528.834629	4654.399902
1529.350666	4606.0
1529.866648	4608.399902
1530.382575	4643.399902
1530.898448	4615.200195
1531.414266	4624.399902
1531.93003	4644.600098
1532.44574	4644.0
1532.961395	4624.600098
1533.476995	4627.0
1533.992541	4622.200195
1534.508033	4619.600098
1535.02347	4633.399902
1535.538852	4602.799805
1536.05418	4654.799805
1536.569454	4613.600098
1537.084673	4623.799805
1537.599837	4582.799805
1538.114947	4631.200195
1538.630003	4635.200195
1539.145004	4628.0
1539.659951	4622.0
1540.174843	4617.0
1540.689681	4643.200195
1541.204465	4595.600098
1541.719194	4596.0
1542.233868	4596.799805
1542.748488	4606.799805
1543.263054	4590.600098
1543.777565	4576.0
1544.292022	4621.799805
1544.806424	4587.200195
1545.320772	4599.600098
1545.835066	4625.799805
1546.349305	4629.399902
1546.863489	4586.0
1547.37762	4608.799805
1547.891696	4583.399902
1548.405717	4590.600098
1548.919684	4563.600098
1549.433597	4592.399902
1549.947455	4576.200195
1550.461259	4598.399902
1550.975009	4624.799805
1551.488704	4579.799805
1552.002345	4588.600098
1552.515931	4592.399902
1553.029463	4583.399902
1553.542941	4593.600098
1554.056364	4578.799805
1554.569733	4578.200195
1555.083048	4561.600098
1555.596308	4536.200195
1556.109514	4576.200195
1556.622665	4558.0
1557.135762	4586.0
1557.648805	4577.799805
1558.161794	4576.799805
1558.674728	4581.799805
1559.187608	4566.200195
1559.700433	4580.600098
1560.213205	4553.0
1560.725921	4564.0
1561.238584	4581.399902
1561.751192	4548.399902
1562.263746	4578.200195
1562.776246	4539.0
1563.288691	4579.0
1563.801082	4564.799805
1564.313419	4574.200195
1564.825701	4541.600098
1565.337929	4517.399902
1565.850103	4538.600098
1566.362223	4529.799805
1566.874288	4505.399902
1567.386299	4551.399902
1567.898256	4555.799805
1568.410158	4551.600098
1568.922007	4535.0
1569.4338	4511.799805
1569.94554	4514.0
1570.457226	4551.399902
1570.968857	4563.600098
1571.480434	4543.200195
1571.991956	4537.200195
1572.503425	4525.399902
1573.014839	4530.600098
1573.526199	4539.600098
1574.037505	4533.399902
1574.548756	4503.799805
1575.059953	4491.799805
1575.571096	4540.799805
1576.082185	4510.200195
1576.59322	4555.399902
1577.1042	4518.799805
1577.615126	4514.399902
1578.125998	4527.799805
1578.636816	4504.600098
1579.14758	4525.600098
1579.658289	4519.399902
1580.168944	4545.0
1580.679545	4480.600098
1581.190092	4500.600098
1581.700585	4488.799805
1582.211023	4497.200195
1582.721407	4526.799805
1583.231737	4494.0
1583.742013	4486.200195
1584.252235	4469.200195
1584.762403	4516.0
1585.272516	4518.200195
1585.782575	4503.399902
1586.292581	4469.799805
1586.802532	4470.0
1587.312428	4495.799805
1587.822271	4485.600098
1588.33206	4515.200195
1588.841794	4472.799805
1589.351474	4494.0
1589.8611	4454.399902
1590.370672	4490.799805
1590.88019	4442.200195
1591.389654	4506.399902
1591.899064	4499.200195
