1043.018714	845.7999878
1043.585098	848.7999878
1044.151424	845.0
1044.717692	838.5999756
1045.283903	842.0
1045.850056	839.7999878
1046.416151	836.2000122
1046.982188	847.2000122
1047.548167	839.2000122
1048.114089	842.5999756
1048.679953	843.5999756
1049.24576	845.2000122
1049.811509	847.5999756
1050.3772	837.4000244
1050.942833	846.4000244
1051.508408	836.0
1052.073926	837.2000122
1052.639387	834.7999878
1053.204789	839.0
1053.770134	834.7999878
1054.335421	838.7999878
1054.900651	837.2000122
1055.465823	831.2000122
1056.030937	838.5999756
1056.595993	831.7999878
1057.160992	834.2000122
1057.725934	833.4000244
1058.290817	832.7999878
1058.855643	832.5999756
1059.420411	827.5999756
1059.985122	829.2000122
1060.549775	832.5999756
1061.114371	832.7999878
1061.678908	823.4000244
1062.243389	833.7999878
1062.807811	826.2000122
1063.372176	826.2000122
1063.936483	830.4000244
1064.500733	831.7999878
1065.064925	834.7999878
1065.62906	823.4000244
1066.193137	821.0
1066.757156	829.5999756
1067.321118	826.7999878
1067.885022	825.4000244
1068.448869	832.5999756
1069.012658	841.4000244
1069.57639	826.7999878
1070.140063	835.7999878
1070.70368	827.4000244
1071.267239	822.5999756
1071.83074	830.4000244
1072.394184	826.5999756
1072.95757	829.0
1073.520899	820.4000244
1074.08417	824.5999756
1074.647383	827.0
1075.21054	827.5999756
1075.773638	828.0
1076.336679	825.0
1076.899663	822.7999878
1077.462589	824.4000244
1078.025457	825.0
1078.588268	822.4000244
1079.151022	816.5999756
1079.713718	827.0
1080.276356	822.0
1080.838937	820.0
1081.401461	821.7999878
1081.963927	820.2000122
1082.526336	822.0
1083.088687	826.0
1083.650981	816.5999756
1084.213217	826.0
1084.775396	821.2000122
1085.337517	819.2000122
1085.899581	822.0
1086.461587	820.2000122
1087.023536	815.5999756
1087.585428	818.0
1088.147262	817.4000244
1088.709039	823.0
1089.270758	823.0
1089.83242	822.4000244
1090.394024	815.2000122
1090.955571	818.0
1091.517061	812.4000244
1092.078493	824.4000244
1092.639868	819.5999756
1093.201185	824.0
1093.762445	817.0
1094.323648	824.5999756
1094.884793	809.4000244
1095.445881	823.2000122
1096.006911	821.2000122
1096.567884	819.0
1097.1288	819.5999756
1097.689659	813.4000244
1098.25046	813.7999878
1098.811203	816.0
1099.37189	819.2000122
1099.932518	821.2000122
1100.49309	819.2000122
1101.053604	824.0
1101.614061	813.2000122
1102.174461	822.5999756
1102.734803	819.5999756
1103.295088	817.4000244
1103.855316	811.0
1104.415486	808.5999756
1104.975599	810.2000122
1105.535655	817.7999878
1106.095653	819.4000244
1106.655594	811.5999756
1107.215478	813.5999756
1107.775305	817.7999878
1108.335074	812.4000244
1108.894786	814.2000122
1109.45444	816.5999756
1110.014038	814.7999878
1110.573578	807.0
1111.133061	814.7999878
1111.692486	816.5999756
1112.251854	811.7999878
1112.811165	817.5999756
1113.370419	818.4000244
1113.929616	809.0
1114.488755	824.4000244
1115.047837	818.4000244
1115.606862	811.2000122
1116.16583	811.7999878
1116.72474	816.5999756
1117.283593	809.2000122
1117.842389	813.0
1118.401128	815.4000244
1118.959809	805.4000244
1119.518433	809.7999878
1120.077	817.2000122
1120.63551	807.2000122
1121.193963	805.2000122
1121.752358	805.7999878
1122.310697	811.4000244
1122.868978	813.0
1123.427202	809.4000244
1123.985368	809.5999756
1124.543478	812.4000244
1125.10153	812.7999878
1125.659526	807.4000244
1126.217464	810.4000244
1126.775345	810.2000122
1127.333168	814.7999878
1127.890935	806.5999756
1128.448644	805.4000244
1129.006297	803.7999878
1129.563892	805.0
1130.12143	800.2000122
1130.678911	808.5999756
1131.236335	804.2000122
1131.793701	808.4000244
1132.351011	811.2000122
1132.908263	807.0
1133.465458	797.2000122
1134.022597	809.4000244
1134.579678	808.4000244
1135.136702	809.4000244
1135.693669	809.5999756
1136.250578	803.5999756
1136.807431	811.5999756
1137.364227	807.5999756
1137.920965	810.5999756
1138.477647	818.5999756
1139.034271	809.4000244
1139.590839	812.4000244
1140.147349	806.4000244
1140.703802	807.4000244
1141.260198	813.2000122
1141.816537	810.5999756
1142.37282	803.7999878
1142.929045	811.2000122
1143.485213	805.2000122
1144.041323	814.4000244
1144.597377	806.0
1145.153374	805.4000244
1145.709314	810.2000122
1146.265197	808.5999756
1146.821023	814.2000122
1147.376792	813.7999878
1147.932503	807.7999878
1148.488158	813.5999756
1149.043756	808.2000122
1149.599297	811.7999878
1150.154781	816.5999756
1150.710207	816.0
1151.265577	820.2000122
1151.82089	815.2000122
1152.376146	808.2000122
1152.931345	810.2000122
1153.486487	811.4000244
1154.041572	811.0
1154.5966	810.0
1155.151571	810.2000122
1155.706485	807.0
1156.261342	816.5999756
1156.816142	812.2000122
1157.370885	799.4000244
1157.925572	809.5999756
1158.480201	807.2000122
1159.034774	804.5999756
1159.589289	811.4000244
1160.143748	811.4000244
1160.698149	806.4000244
1161.252494	813.5999756
1161.806782	806.0
1162.361013	811.0
1162.915187	812.7999878
1163.469304	806.0
1164.023364	809.4000244
1164.577368	807.4000244
1165.131314	808.2000122
1165.685204	803.7999878
1166.239036	804.4000244
1166.792812	807.7999878
1167.346531	803.7999878
1167.900193	802.7999878
1168.453798	807.4000244
1169.007347	810.7999878
1169.560838	808.7999878
1170.114273	798.7999878
1170.66765	803.7999878
1171.220971	810.4000244
1171.774235	804.5999756
1172.327443	802.0
1172.880593	802.4000244
1173.433687	807.0
1173.986723	806.0
1174.539703	797.2000122
1175.092626	800.4000244
1175.645493	800.0
1176.198302	804.7999878
1176.751055	806.7999878
1177.303751	803.0
1177.85639	796.5999756
1178.408972	801.5999756
1178.961498	803.4000244
1179.513966	806.7999878
1180.066378	801.4000244
1180.618733	799.5999756
1181.171032	803.4000244
1181.723273	804.0
1182.275458	805.4000244
1182.827586	799.2000122
1183.379657	806.0
1183.931672	798.2000122
1184.48363	801.2000122
1185.035531	801.7999878
1185.587375	796.4000244
1186.139162	796.0
1186.690893	798.7999878
1187.242567	797.5999756
1187.794184	798.4000244
1188.345745	799.2000122
1188.897249	805.5999756
1189.448696	800.4000244
1190.000086	797.0
1190.55142	806.4000244
1191.102697	791.5999756
1191.653918	801.7999878
1192.205081	795.7999878
1192.756188	803.2000122
1193.307238	818.0
1193.858232	802.5999756
1194.409169	802.5999756
1194.960049	799.0
1195.510872	802.4000244
1196.061639	796.5999756
1196.612349	794.5999756
1197.163003	805.7999878
1197.713599	805.5999756
1198.264139	801.7999878
1198.814623	801.4000244
1199.36505	801.7999878
1199.91542	799.2000122
1200.465734	798.5999756
1201.01599	800.7999878
1201.566191	796.5999756
1202.116334	798.7999878
1202.666421	792.5999756
1203.216452	790.5999756
1203.766425	798.4000244
1204.316343	798.5999756
1204.866203	795.4000244
1205.416007	801.7999878
1205.965754	799.2000122
1206.515445	796.4000244
1207.065079	795.4000244
1207.614657	792.2000122
1208.164177	799.2000122
1208.713642	797.7999878
1209.26305	795.0
1209.812401	799.4000244
1210.361695	796.4000244
1210.910933	798.5999756
1211.460115	794.7999878
1212.00924	797.0
1212.558308	795.5999756
1213.10732	797.2000122
1213.656275	799.4000244
1214.205174	798.2000122
1214.754016	794.5999756
1215.302801	795.4000244
1215.85153	793.5999756
1216.400203	797.5999756
1216.948819	791.7999878
1217.497378	800.0
1218.045881	796.2000122
1218.594327	799.2000122
1219.142717	794.5999756
1219.691051	797.0
1220.239327	799.7999878
1220.787548	788.4000244
1221.335712	787.4000244
1221.883819	794.2000122
1222.43187	793.2000122
1222.979864	791.2000122
1223.527802	789.2000122
1224.075683	796.4000244
1224.623508	792.0
1225.171277	796.2000122
1225.718989	795.5999756
1226.266644	794.4000244
1226.814243	795.5999756
1227.361786	793.5999756
1227.909272	790.5999756
1228.456702	793.7999878
1229.004075	792.5999756
1229.551392	784.5999756
1230.098652	790.4000244
1230.645856	793.7999878
1231.193003	795.2000122
1231.740094	800.7999878
1232.287129	793.5999756
1232.834107	786.0
1233.381029	788.4000244
1233.927894	798.2000122
1234.474703	795.7999878
1235.021455	789.5999756
1235.568151	787.0
1236.114791	796.4000244
1236.661374	793.7999878
1237.207901	794.4000244
1237.754372	796.4000244
1238.300786	792.0
1238.847144	793.4000244
1239.393445	793.2000122
1239.93969	788.5999756
1240.485879	792.5999756
1241.032011	790.2000122
1241.578087	790.7999878
1242.124106	790.4000244
1242.67007	795.4000244
1243.215976	795.5999756
1243.761827	792.2000122
1244.307621	790.4000244
1244.853359	788.7999878
1245.39904	790.0
1245.944665	789.2000122
1246.490234	792.4000244
1247.035746	792.0
1247.581203	788.4000244
1248.126602	794.2000122
1248.671946	795.4000244
1249.217233	797.7999878
1249.762464	782.2000122
1250.307638	790.7999878
1250.852757	788.0
1251.397819	788.5999756
1251.942824	784.2000122
1252.487774	789.2000122
1253.032667	790.0
1253.577503	787.7999878
1254.122284	790.2000122
1254.667008	791.2000122
1255.211676	789.0
1255.756288	788.7999878
1256.300843	790.2000122
1256.845342	783.2000122
1257.389785	785.4000244
1257.934172	791.5999756
1258.478502	783.2000122
1259.022776	790.2000122
1259.566994	793.2000122
1260.655261	782.7999878
1261.199311	784.4000244
1261.743304	785.0
1262.28724	787.4000244
1262.831121	792.5999756
1263.374945	788.5999756
1263.918713	794.4000244
1264.462425	796.0
1265.006081	806.5999756
1265.54968	812.4000244
1266.093223	800.4000244
1266.636711	787.7999878
1267.180141	788.5999756
1267.723516	784.4000244
1268.266835	791.2000122
1268.810097	790.2000122
1269.353303	791.2000122
1269.896453	789.4000244
1270.439547	793.0
1270.982584	781.0
1271.525566	786.0
1272.068491	785.0
1272.61136	785.0
1273.154173	785.4000244
1273.69693	785.2000122
1274.239631	780.7999878
1274.782275	785.7999878
1275.324864	781.7999878
1275.867396	782.0
1276.409872	782.7999878
1276.952292	784.0
1277.494656	786.7999878
1278.036964	785.0
1278.579215	781.4000244
1279.121411	787.7999878
1279.66355	786.5999756
1280.205634	783.4000244
1280.747661	785.7999878
1281.289632	787.7999878
1281.831547	784.4000244
1282.373406	787.4000244
1282.915209	789.2000122
1283.456955	793.2000122
1283.998646	790.4000244
1284.540281	814.7999878
1285.081859	894.0
1285.623381	1114.400024
1286.164848	1042.599976
1286.706258	842.5999756
1287.247612	798.2000122
1287.788911	788.5999756
1288.330153	789.0
1288.871339	787.2000122
1289.412469	781.2000122
1289.953543	778.0
1290.494561	778.5999756
1291.035523	787.2000122
1291.576428	786.2000122
1292.117278	778.2000122
1292.658072	783.0
1293.19881	783.7999878
1293.739492	781.7999878
1294.280118	779.0
1294.820687	783.0
1295.361201	778.5999756
1295.901659	782.4000244
1296.442061	779.2000122
1296.982406	783.0
1297.522696	782.4000244
1298.06293	775.5999756
1298.603108	779.0
1299.143229	778.7999878
1299.683295	785.5999756
1300.223305	774.5999756
1300.763259	777.5999756
1301.303157	781.2000122
1301.842999	778.2000122
1302.382785	780.2000122
1302.922515	781.0
1303.462189	781.7999878
1304.001807	780.5999756
1304.541369	779.0
1305.080875	783.4000244
1305.620326	772.4000244
1306.15972	777.4000244
1306.699058	783.0
1307.238341	783.5999756
1307.777567	775.0
1308.316738	771.2000122
1308.855853	777.5999756
1309.394912	789.0
1309.933915	778.4000244
1310.472862	775.5999756
1311.011753	771.7999878
1311.550588	776.0
1312.089367	773.0
1312.62809	777.2000122
1313.166758	777.2000122
1313.70537	777.7999878
1314.243925	779.0
1314.782425	773.0
1315.320869	777.5999756
1315.859257	774.5999756
1316.397589	777.2000122
1316.935866	780.2000122
1317.474086	778.4000244
1318.012251	778.7999878
1318.55036	778.4000244
1319.088413	782.7999878
1319.62641	780.7999878
1320.164351	783.5999756
1320.702236	776.7999878
1321.240066	778.7999878
1321.777839	778.0
1322.315557	776.0
1322.853219	779.2000122
1323.390826	782.0
1323.928376	781.2000122
1324.465871	776.5999756
1325.003309	772.4000244
1325.540692	781.5999756
1326.07802	773.2000122
1326.615291	776.5999756
1327.152506	781.7999878
1327.689666	779.7999878
1328.22677	776.0
1328.763818	777.4000244
1329.300811	780.5999756
1329.837747	775.5999756
1330.374628	777.7999878
1330.911453	772.5999756
1331.448222	782.2000122
1331.984936	777.0
1332.521594	772.7999878
1333.058196	777.7999878
1333.594742	774.5999756
1334.131232	767.4000244
1334.667667	774.0
1335.204046	770.0
1335.740369	774.7999878
1336.276637	781.4000244
1336.812848	773.4000244
1337.349004	778.7999878
1337.885105	775.2000122
1338.421149	778.0
1338.957138	780.5999756
1339.493071	779.7999878
1340.028949	775.5999756
1340.56477	774.4000244
1341.100536	770.0
1341.636246	770.4000244
1342.171901	773.4000244
1342.7075	772.7999878
1343.243043	772.2000122
1343.77853	778.7999878
1344.313962	770.5999756
1344.849338	777.5999756
1345.384659	771.5999756
1345.919923	774.0
1346.455133	773.5999756
1346.990286	772.2000122
1347.525384	773.0
1348.060426	773.5999756
1348.595412	771.5999756
1349.130343	769.4000244
1349.665218	775.2000122
1350.200037	772.2000122
1350.734801	769.2000122
1351.269509	772.7999878
1351.804162	773.5999756
1352.338758	769.2000122
1352.8733	770.0
1353.407785	773.2000122
1353.942215	773.4000244
1354.476589	774.2000122
1355.010908	771.0
1355.545171	775.2000122
1356.079379	771.7999878
1356.61353	771.2000122
1357.147627	778.2000122
1357.681667	772.4000244
1358.215652	774.0
1358.749582	770.2000122
1359.283456	777.0
1359.817274	769.2000122
1360.351037	774.7999878
1360.884744	773.5999756
1361.418395	775.2000122
1361.951991	771.2000122
1362.485531	773.5999756
1363.019016	774.2000122
1363.552445	773.7999878
1364.085819	773.7999878
1364.619137	772.7999878
1365.1524	771.7999878
1365.685607	772.0
1366.218758	771.7999878
1366.751854	775.7999878
1367.284894	771.7999878
1367.817879	768.2000122
1368.350808	774.5999756
1368.883682	773.7999878
1369.4165	763.2000122
1369.949263	775.2000122
1370.48197	781.4000244
1371.014622	776.5999756
1371.547218	772.2000122
1372.079758	769.4000244
1372.612244	767.5999756
1373.144673	770.0
1373.677047	768.7999878
1374.209366	768.2000122
1374.741629	769.4000244
1375.273836	768.5999756
1375.805989	772.4000244
1376.338085	773.0
1376.870126	775.2000122
1377.402112	773.4000244
1377.934042	774.5999756
1378.465917	771.5999756
1378.997736	774.2000122
1379.5295	777.2000122
1380.061208	766.0
1380.592861	773.2000122
1381.124459	770.7999878
1381.656	770.0
1382.187487	771.4000244
1382.718918	767.2000122
1383.250294	766.5999756
1383.781614	773.4000244
1384.312879	775.0
1384.844088	774.7999878
1385.375242	777.0
1385.90634	779.4000244
1386.437383	774.2000122
1386.968371	779.0
1387.499303	784.0
1388.03018	823.0
1388.561001	1085.199951
1389.091767	1390.800049
1389.622478	975.0
1390.153133	806.7999878
1390.683733	779.4000244
1391.214277	775.2000122
1391.744766	772.0
1392.2752	777.4000244
1392.805578	771.0
1393.335901	767.5999756
1393.866168	772.2000122
1394.396381	771.4000244
1394.926537	766.4000244
1395.456639	770.5999756
1395.986685	765.2000122
1396.516675	766.5999756
1397.046611	768.4000244
1397.576491	767.7999878
1398.106315	769.0
1398.636084	766.7999878
1399.165798	771.0
1399.695457	767.5999756
1400.22506	765.2000122
1400.754608	769.5999756
1401.284101	769.5999756
1401.813538	765.4000244
1402.34292	767.4000244
1402.872247	768.7999878
1403.401518	771.2000122
1403.930734	769.5999756
1404.459895	765.2000122
1404.989	771.7999878
1405.51805	770.4000244
1406.047045	763.5999756
1406.575984	761.4000244
1407.104869	772.0
1407.633697	766.7999878
1408.162471	766.0
1408.691189	765.2000122
1409.219852	769.4000244
1409.74846	783.2000122
1410.277013	804.5999756
1410.80551	793.4000244
1411.333952	776.4000244
1411.862339	770.4000244
1412.39067	770.2000122
1412.918946	769.2000122
1413.447167	767.4000244
1413.975333	762.4000244
1414.503444	764.5999756
1415.031499	769.4000244
1415.559499	777.4000244
1416.087444	768.5999756
1416.615333	769.4000244
1417.143167	762.0
1417.670947	769.7999878
1418.19867	768.4000244
1418.726339	768.2000122
1419.253952	763.7999878
1419.781511	767.4000244
1420.309014	765.4000244
1420.836461	763.7999878
1421.363854	765.4000244
1421.891191	766.5999756
1422.418474	766.0
1422.945701	765.4000244
1423.472872	766.2000122
1423.999989	762.4000244
1424.52705	764.2000122
1425.054057	764.4000244
1425.581008	766.7999878
1426.107904	766.0
1426.634745	769.0
1427.16153	768.5999756
1427.688261	762.5999756
1428.214936	757.0
1428.741556	765.7999878
1429.268121	765.2000122
1429.794631	762.4000244
1430.321085	767.0
1430.847485	770.5999756
1431.373829	760.4000244
1431.900118	768.4000244
1432.426353	762.5999756
1432.952532	763.7999878
1433.478655	764.7999878
1434.004724	764.2000122
1434.530738	759.4000244
1435.056696	765.4000244
1435.5826	765.5999756
1436.108448	767.0
1436.634241	765.5999756
1437.159979	762.7999878
1437.685662	757.7999878
1438.21129	767.7999878
1438.736863	758.2000122
1439.262381	761.0
1439.787843	761.4000244
1440.313251	757.4000244
1440.838603	761.7999878
1441.3639	762.0
1441.889143	764.5999756
1442.41433	765.5999756
1442.939462	757.7999878
1443.464539	763.2000122
1443.989561	762.4000244
1444.514528	760.7999878
1445.03944	767.4000244
1445.564297	758.0
1446.089099	764.5999756
1446.613846	758.4000244
1447.138537	757.2000122
1447.663174	756.7999878
1448.187756	763.4000244
1448.712282	758.7999878
1449.236754	758.7999878
1449.761171	763.0
1450.285532	758.7999878
1450.809839	762.0
1451.33409	759.0
1451.858287	761.5999756
1452.382428	758.0
1452.906515	758.5999756
1453.430546	765.2000122
1453.954523	766.2000122
1454.478444	760.4000244
1455.002311	762.4000244
1455.526123	755.7999878
1456.049879	758.7999878
1456.573581	764.7999878
1457.097227	763.0
1457.620819	756.7999878
1458.144356	755.2000122
1458.667837	761.4000244
1459.191264	761.2000122
1459.714636	759.0
1460.237952	760.2000122
1460.761214	760.7999878
1461.284421	762.2000122
1461.807573	761.5999756
1462.33067	760.5999756
1462.853712	760.7999878
1463.376699	761.7999878
1463.899632	759.0
1464.422509	762.0
1464.945331	758.7999878
1465.468099	759.5999756
1465.990811	758.4000244
1466.513469	763.0
1467.036071	757.4000244
1467.558619	758.4000244
1468.081112	760.2000122
1468.60355	753.2000122
1469.125933	758.4000244
1469.648261	758.5999756
1470.170534	762.4000244
1470.692752	752.2000122
1471.214916	758.7999878
1471.737024	756.0
1472.259078	759.4000244
1472.781077	755.0
1473.303021	756.2000122
1473.82491	763.2000122
1474.346744	756.2000122
1474.868523	763.0
1475.390248	756.2000122
1475.911917	759.2000122
1476.433532	761.5999756
1476.955092	752.7999878
1477.476597	758.2000122
1477.998047	756.2000122
1478.519442	759.2000122
1479.040783	759.7999878
1479.562068	761.2000122
1480.083299	757.2000122
1480.604475	754.4000244
1481.125596	755.0
1481.646663	760.0
1482.167674	755.0
1482.688631	759.4000244
1483.209533	755.7999878
1483.73038	757.4000244
1484.251172	758.0
1484.771909	759.0
1485.292592	753.5999756
1485.81322	756.4000244
1486.333793	762.7999878
1486.854311	759.7999878
1487.374775	755.4000244
1487.895183	760.5999756
1488.415537	759.7999878
1488.935836	761.2000122
1489.456081	760.0
1489.97627	761.7999878
1490.496405	760.2000122
1491.016485	750.5999756
1491.536511	758.4000244
1492.056481	762.2000122
1492.576397	759.0
1493.096258	752.7999878
1493.616064	760.7999878
1494.135816	752.7999878
1494.655513	756.4000244
1495.175155	760.4000244
1495.694742	752.7999878
1496.214274	753.5999756
1496.733752	757.5999756
1497.253175	760.0
1497.772544	750.0
1498.291858	757.2000122
1498.811116	757.0
1499.330321	757.7999878
1499.84947	759.2000122
1500.368565	755.0
1500.887605	755.7999878
1501.406591	753.2000122
1501.925521	750.0
1502.444397	753.7999878
1502.963219	753.0
1503.481985	754.4000244
1504.000697	752.4000244
1504.519355	752.7999878
1505.037957	751.7999878
1505.556505	756.2000122
1506.074999	754.2000122
1506.593437	755.7999878
1507.111821	758.2000122
1507.63015	747.5999756
1508.148425	751.0
1508.666645	754.0
1509.18481	752.0
1509.702921	751.4000244
1510.220977	751.2000122
1510.738979	758.0
1511.256925	753.4000244
1511.774817	753.4000244
1512.292655	753.0
1512.810438	757.5999756
1513.328166	749.7999878
1513.84584	752.4000244
1514.363459	749.0
1514.881023	755.5999756
1515.398533	748.0
1515.915988	751.0
1516.433389	754.5999756
1516.950734	750.5999756
1517.468026	751.5999756
1517.985263	751.5999756
1518.502445	757.5999756
1519.019572	755.0
1519.536645	753.4000244
1520.053664	753.2000122
1520.570628	748.2000122
1521.087537	754.2000122
1521.604392	753.4000244
1522.121192	753.0
1522.637937	751.0
1523.154628	748.5999756
1523.671265	748.5999756
1524.187847	750.7999878
1524.704374	753.0
1525.220847	754.4000244
1525.737265	752.5999756
1526.253629	757.4000244
1526.769938	752.4000244
1527.286192	754.0
1527.802392	756.2000122
1528.318538	747.7999878
1528.834629	754.4000244
1529.350666	749.5999756
1529.866648	754.2000122
1530.382575	751.2000122
1530.898448	754.7999878
1531.414266	752.4000244
1531.93003	755.2000122
1532.44574	748.4000244
1532.961395	746.4000244
1533.476995	754.2000122
1533.992541	750.5999756
1534.508033	749.7999878
1535.02347	754.0
1535.538852	748.2000122
1536.05418	748.2000122
1536.569454	753.4000244
1537.084673	755.0
1537.599837	760.2000122
1538.114947	753.7999878
1538.630003	749.7999878
1539.145004	751.4000244
1539.659951	749.2000122
1540.174843	750.2000122
1540.689681	753.7999878
1541.204465	748.5999756
1541.719194	749.7999878
1542.233868	750.0
1542.748488	750.5999756
1543.263054	753.4000244
1543.777565	743.4000244
1544.292022	749.5999756
1544.806424	748.4000244
1545.320772	756.0
1545.835066	749.5999756
1546.349305	752.5999756
1546.863489	746.5999756
1547.37762	752.2000122
1547.891696	753.0
1548.405717	752.0
1548.919684	751.5999756
1549.433597	752.0
1549.947455	751.2000122
1550.461259	752.5999756
1550.975009	754.4000244
1551.488704	750.7999878
1552.002345	754.4000244
1552.515931	752.0
1553.029463	744.7999878
1553.542941	747.2000122
1554.056364	752.5999756
1554.569733	749.0
1555.083048	755.0
1555.596308	749.2000122
1556.109514	746.4000244
1556.622665	751.0
1557.135762	752.2000122
1557.648805	752.2000122
1558.161794	744.4000244
1558.674728	748.0
1559.187608	749.7999878
1559.700433	748.0
1560.213205	749.5999756
1560.725921	752.0
1561.238584	751.0
1561.751192	752.0
1562.263746	754.0
1562.776246	751.2000122
1563.288691	747.4000244
1563.801082	751.4000244
1564.313419	748.5999756
1564.825701	749.5999756
1565.337929	753.2000122
1565.850103	751.5999756
1566.362223	758.7999878
1566.874288	742.5999756
1567.386299	752.7999878
1567.898256	749.2000122
1568.410158	751.4000244
1568.922007	747.5999756
1569.4338	745.7999878
1569.94554	748.5999756
1570.457226	743.4000244
1570.968857	747.5999756
1571.480434	745.7999878
1571.991956	749.4000244
1572.503425	744.2000122
1573.014839	749.0
1573.526199	749.0
1574.037505	746.5999756
1574.548756	751.0
1575.059953	750.0
1575.571096	748.4000244
1576.082185	747.5999756
1576.59322	748.7999878
1577.1042	749.5999756
1577.615126	744.4000244
1578.125998	747.5999756
1578.636816	749.2000122
1579.14758	752.7999878
1579.658289	748.7999878
1580.168944	745.5999756
1580.679545	751.5999756
1581.190092	750.4000244
1581.700585	745.2000122
1582.211023	754.5999756
1582.721407	746.0
1583.231737	748.4000244
1583.742013	744.0
1584.252235	748.0
1584.762403	744.7999878
1585.272516	738.7999878
1585.782575	744.0
1586.292581	745.4000244
1586.802532	748.4000244
1587.312428	746.7999878
1587.822271	753.5999756
1588.33206	751.5999756
1588.841794	749.5999756
1589.351474	746.0
1589.8611	750.5999756
1590.370672	752.4000244
1590.88019	751.7999878
1591.389654	748.2000122
1591.899064	747.7999878
