1042.452273	5549.399902
1043.018714	5563.399902
1043.585098	5557.600098
1044.151424	5523.200195
1044.717692	5511.399902
1045.283903	5538.200195
1045.850056	5522.200195
1046.416151	5540.799805
1046.982188	5559.600098
1047.548167	5508.399902
1048.114089	5541.0
1048.679953	5525.399902
1049.24576	5536.0
1049.811509	5531.600098
1050.3772	5532.0
1050.942833	5530.0
1051.508408	5514.399902
1052.073926	5497.399902
1052.639387	5500.200195
1053.204789	5479.799805
1053.770134	5488.200195
1054.335421	5518.399902
1054.900651	5493.799805
1055.465823	5459.0
1056.030937	5493.0
1056.595993	5518.399902
1057.160992	5486.200195
1057.725934	5470.399902
1058.290817	5538.799805
1058.855643	5459.200195
1059.420411	5484.799805
1059.985122	5454.200195
1060.549775	5459.799805
1061.114371	5504.399902
1061.678908	5494.0
1062.243389	5453.799805
1062.807811	5443.799805
1063.372176	5470.600098
1063.936483	5505.600098
1064.500733	5443.600098
1065.064925	5411.200195
1065.62906	5431.399902
1066.193137	5426.799805
1066.757156	5453.600098
1067.321118	5458.200195
1067.885022	5410.200195
1068.448869	5427.799805
1069.012658	5408.200195
1069.57639	5402.0
1070.140063	5421.200195
1070.70368	5418.399902
1071.267239	5390.399902
1071.83074	5400.799805
1072.394184	5402.0
1072.95757	5416.200195
1073.520899	5364.799805
1074.08417	5407.0
1074.647383	5359.799805
1075.21054	5391.399902
1075.773638	5328.399902
1076.336679	5377.399902
1076.899663	5358.600098
1077.462589	5390.600098
1078.025457	5320.0
1078.588268	5391.0
1079.151022	5311.600098
1079.713718	5377.0
1080.276356	5334.399902
1080.838937	5354.399902
1081.401461	5278.399902
1081.963927	5351.0
1082.526336	5321.600098
1083.088687	5340.799805
1083.650981	5281.799805
1084.213217	5300.600098
1084.775396	5294.200195
1085.337517	5292.799805
1085.899581	5296.600098
1086.461587	5299.399902
1087.023536	5259.0
1087.585428	5294.600098
1088.147262	5232.600098
1088.709039	5305.799805
1089.270758	5232.200195
1089.83242	5278.799805
1090.394024	5195.0
1090.955571	5271.0
1091.517061	5194.0
1092.078493	5261.0
1092.639868	5212.600098
1093.201185	5242.600098
1093.762445	5239.399902
1094.323648	5216.600098
1094.884793	5173.399902
1095.445881	5221.600098
1096.006911	5185.799805
1096.567884	5202.200195
1097.1288	5159.600098
1097.689659	5186.0
1098.25046	5171.600098
1098.811203	5235.799805
1099.37189	5177.0
1099.932518	5212.200195
1100.49309	5145.0
1101.053604	5209.399902
1101.614061	5103.200195
1102.174461	5191.0
1102.734803	5070.600098
1103.295088	5131.399902
1103.855316	5142.200195
1104.415486	5154.0
1104.975599	5091.600098
1105.535655	5109.399902
1106.095653	5075.0
1106.655594	5104.600098
1107.215478	5065.200195
1107.775305	5129.0
1108.335074	5051.799805
1108.894786	5098.399902
1109.45444	5042.0
1110.014038	5117.399902
1110.573578	5027.600098
1111.133061	5095.0
1111.692486	5060.399902
1112.251854	5083.799805
1112.811165	5041.0
1113.370419	5085.200195
1113.929616	5038.200195
1114.488755	5068.200195
1115.047837	5044.399902
1115.606862	5056.399902
1116.16583	5047.799805
1116.72474	5023.200195
1117.283593	5011.200195
1117.842389	5011.399902
1118.401128	5005.399902
1118.959809	5019.200195
1119.518433	5013.200195
1120.077	4998.799805
1120.63551	5021.600098
1121.193963	5027.600098
1121.752358	4996.600098
1122.310697	5060.0
1122.868978	5010.600098
1123.427202	5059.399902
1123.985368	4973.799805
1124.543478	4973.399902
1125.10153	4967.799805
1125.659526	5031.0
1126.217464	4970.399902
1126.775345	4966.0
1127.333168	4986.200195
1127.890935	5007.399902
1128.448644	4977.600098
1129.006297	4987.600098
1129.563892	4964.600098
1130.12143	4956.399902
1130.678911	4943.0
1131.236335	4976.0
1131.793701	4973.0
1132.351011	4953.200195
1132.908263	4994.200195
1133.465458	4928.399902
1134.022597	4962.600098
1134.579678	4948.799805
1135.136702	4963.0
1135.693669	4952.0
1136.250578	4949.799805
1136.807431	4961.600098
1137.364227	4983.799805
1137.920965	4942.200195
1138.477647	4994.0
1139.034271	4931.0
1139.590839	4968.600098
1140.147349	4933.0
1140.703802	4971.200195
1141.260198	4941.200195
1141.816537	4971.399902
1142.37282	4906.0
1142.929045	4974.200195
1143.485213	4950.600098
1144.041323	4918.600098
1144.597377	4910.799805
1145.153374	4944.0
1145.709314	4939.799805
1146.265197	4943.399902
1146.821023	4949.600098
1147.376792	4962.0
1147.932503	4959.799805
1148.488158	4964.399902
1149.043756	4946.600098
1149.599297	4952.399902
1150.154781	5024.200195
1150.710207	5206.0
1151.265577	5119.0
1151.82089	4996.0
1152.376146	4939.399902
1152.931345	4931.399902
1153.486487	4905.0
1154.041572	4951.600098
1154.5966	4904.200195
1155.151571	4948.200195
1155.706485	4897.200195
1156.261342	4931.600098
1156.816142	4915.0
1157.370885	4920.399902
1157.925572	4874.0
1158.480201	4927.200195
1159.034774	4898.799805
1159.589289	4925.399902
1160.143748	4910.0
1160.698149	4907.200195
1161.252494	4890.799805
1161.806782	4907.0
1162.361013	4877.600098
1162.915187	4915.799805
1163.469304	4875.600098
1164.023364	4873.799805
1164.577368	4894.600098
1165.131314	4895.600098
1165.685204	4864.600098
1166.239036	4888.799805
1166.792812	4852.600098
1167.346531	4889.0
1167.900193	4814.200195
1168.453798	4870.600098
1169.007347	4863.399902
1169.560838	4866.399902
1170.114273	4862.600098
1170.66765	4868.799805
1171.220971	4859.200195
1171.774235	4877.799805
1172.327443	4852.600098
1172.880593	4851.600098
1173.433687	4851.200195
1173.986723	4832.200195
1174.539703	4834.0
1175.092626	4844.0
1175.645493	4849.0
1176.198302	4838.399902
1176.751055	4845.0
1177.303751	4817.200195
1177.85639	4835.0
1178.408972	4829.799805
1178.961498	4825.399902
1179.513966	4843.200195
1180.066378	4840.0
1180.618733	4843.399902
1181.171032	4811.799805
1181.723273	4801.399902
1182.275458	4821.799805
1182.827586	4804.0
1183.379657	4761.799805
1183.931672	4792.399902
1184.48363	4801.600098
1185.035531	4802.799805
1185.587375	4793.399902
1186.139162	4779.399902
1186.690893	4802.399902
1187.242567	4766.600098
1187.794184	4798.399902
1188.345745	4799.600098
1188.897249	4770.600098
1189.448696	4783.200195
1190.000086	4777.399902
1190.55142	4740.600098
1191.102697	4773.200195
1191.653918	4788.0
1192.205081	4754.399902
1192.756188	4737.200195
1193.307238	4762.200195
1193.858232	4732.799805
1194.409169	4743.799805
1194.960049	4708.799805
1195.510872	4755.0
1196.061639	4749.0
1196.612349	4749.200195
1197.163003	4733.0
1197.713599	4733.600098
1198.264139	4730.0
1198.814623	4699.399902
1199.36505	4745.399902
1199.91542	4746.600098
1200.465734	4709.399902
1201.01599	4700.399902
1201.566191	4689.600098
1202.116334	4714.200195
1202.666421	4705.399902
1203.216452	4699.600098
1203.766425	4707.399902
1204.316343	4683.0
1204.866203	4711.600098
1205.416007	4700.200195
1205.965754	4689.600098
1206.515445	4656.600098
1207.065079	4650.200195
1207.614657	4694.799805
1208.164177	4631.600098
1208.713642	4659.600098
1209.26305	4639.799805
1209.812401	4677.600098
1210.361695	4707.600098
1210.910933	4644.399902
1211.460115	4684.0
1212.00924	4637.799805
1212.558308	4667.0
1213.10732	4655.0
1213.656275	4617.200195
1214.205174	4670.799805
1214.754016	4612.399902
1215.302801	4647.200195
1215.85153	4629.399902
1216.400203	4646.799805
1216.948819	4621.200195
1217.497378	4594.0
1218.045881	4626.399902
1218.594327	4584.600098
1219.142717	4613.799805
1219.691051	4616.600098
1220.239327	4578.799805
1220.787548	4617.399902
1221.335712	4613.0
1221.883819	4605.0
1222.43187	4591.200195
1222.979864	4556.600098
1223.527802	4562.600098
1224.075683	4580.0
1224.623508	4575.399902
1225.171277	4577.799805
1225.718989	4605.200195
1226.266644	4530.600098
1226.814243	4573.799805
1227.361786	4558.799805
1227.909272	4567.399902
1228.456702	4576.0
1229.004075	4567.799805
1229.551392	4557.600098
1230.098652	4540.399902
1230.645856	4590.799805
1231.193003	4567.0
1231.740094	4541.799805
1232.287129	4539.399902
1232.834107	4543.0
1233.381029	4552.399902
1233.927894	4533.799805
1234.474703	4530.399902
1235.021455	4546.799805
1235.568151	4538.600098
1236.114791	4540.0
1236.661374	4554.0
1237.207901	4524.600098
1237.754372	4536.799805
1238.300786	4523.0
1238.847144	4499.600098
1239.393445	4518.600098
1239.93969	4504.0
1240.485879	4559.200195
1241.032011	4510.200195
1241.578087	4525.799805
1242.124106	4514.799805
1242.67007	4504.399902
1243.215976	4501.600098
1243.761827	4491.0
1244.307621	4489.0
1244.853359	4534.600098
1245.39904	4495.200195
1245.944665	4512.0
1246.490234	4512.0
1247.035746	4465.799805
1247.581203	4456.399902
1248.126602	4486.799805
1248.671946	4481.200195
1249.217233	4475.399902
1249.762464	4478.799805
1250.307638	4496.399902
1250.852757	4488.0
1251.397819	4508.799805
1251.942824	4469.799805
1252.487774	4462.399902
1253.032667	4491.200195
1253.577503	4469.0
1254.122284	4481.399902
1254.667008	4469.399902
1255.211676	4488.0
1255.756288	4450.600098
1256.300843	4463.799805
1256.845342	4449.0
1257.389785	4446.600098
1257.934172	4415.399902
1258.478502	4479.799805
1259.022776	4434.399902
1259.566994	4472.0
1260.111156	4462.399902
1260.655261	4436.0
1261.199311	4438.0
1261.743304	4402.600098
1262.28724	4428.0
1262.831121	4417.600098
1263.374945	4433.200195
1263.918713	4432.399902
1264.462425	4419.399902
1265.006081	4492.799805
1265.54968	4484.399902
1266.093223	4446.0
1266.636711	4448.799805
1267.180141	4404.799805
1267.723516	4412.0
1268.266835	4394.200195
1268.810097	4400.600098
1269.353303	4375.200195
1269.896453	4377.200195
1270.439547	4388.600098
1270.982584	4414.799805
1271.525566	4400.600098
1272.068491	4403.200195
1272.61136	4426.0
1273.154173	4372.0
1273.69693	4367.799805
1274.239631	4407.799805
1274.782275	4372.799805
1275.324864	4377.200195
1275.867396	4352.399902
1276.409872	4390.600098
1276.952292	4355.399902
1277.494656	4383.600098
1278.036964	4369.0
1278.579215	4358.600098
1279.121411	4351.200195
1279.66355	4354.0
1280.205634	4343.799805
1280.747661	4385.799805
1281.289632	4375.799805
1281.831547	4356.200195
1282.373406	4331.399902
1282.915209	4389.200195
1283.456955	4360.0
1283.998646	4366.799805
1284.540281	4521.399902
1285.081859	4988.799805
1285.623381	5548.799805
1286.164848	4957.200195
1286.706258	4446.399902
1287.247612	4372.0
1287.788911	4310.600098
1288.330153	4351.600098
1288.871339	4311.600098
1289.412469	4347.200195
1289.953543	4319.799805
1290.494561	4297.600098
1291.035523	4304.600098
1291.576428	4291.399902
1292.117278	4286.399902
1292.658072	4319.200195
1293.19881	4303.0
1293.739492	4310.200195
1294.280118	4318.600098
1294.820687	4264.399902
1295.361201	4274.399902
1295.901659	4298.799805
1296.442061	4290.0
1296.982406	4264.399902
1297.522696	4275.0
1298.06293	4259.600098
1298.603108	4286.200195
1299.143229	4241.200195
1299.683295	4270.600098
1300.223305	4231.200195
1300.763259	4242.799805
1301.303157	4253.0
1301.842999	4258.0
1302.382785	4256.399902
1302.922515	4269.0
1303.462189	4255.0
1304.001807	4229.600098
1304.541369	4269.200195
1305.080875	4244.399902
1305.620326	4247.200195
1306.15972	4192.0
1306.699058	4242.399902
1307.238341	4198.399902
1307.777567	4267.399902
1308.316738	4230.799805
1308.855853	4207.600098
1309.394912	4193.399902
1309.933915	4240.399902
1310.472862	4193.399902
1311.011753	4220.799805
1311.550588	4186.0
1312.089367	4184.200195
1312.62809	4185.799805
1313.166758	4184.399902
1313.70537	4189.0
1314.243925	4231.399902
1314.782425	4207.0
1315.320869	4195.600098
1315.859257	4192.200195
1316.397589	4194.600098
1316.935866	4220.200195
1317.474086	4192.200195
1318.012251	4193.0
1318.55036	4153.799805
1319.088413	4183.200195
1319.62641	4164.0
1320.164351	4190.799805
1320.702236	4184.600098
1321.240066	4170.600098
1321.777839	4161.0
1322.315557	4186.200195
1322.853219	4153.600098
1323.390826	4180.0
1323.928376	4173.799805
1324.465871	4153.600098
1325.003309	4143.600098
1325.540692	4162.200195
1326.07802	4155.399902
1326.615291	4147.799805
1327.152506	4146.600098
1327.689666	4157.600098
1328.22677	4119.0
1328.763818	4114.0
1329.300811	4153.200195
1329.837747	4106.600098
1330.374628	4154.399902
1330.911453	4120.799805
1331.448222	4171.399902
1331.984936	4115.799805
1332.521594	4150.399902
1333.058196	4136.200195
1333.594742	4113.799805
1334.131232	4091.600098
1334.667667	4110.799805
1335.204046	4120.0
1335.740369	4099.399902
1336.276637	4102.200195
1336.812848	4116.799805
1337.349004	4088.0
1337.885105	4102.600098
1338.421149	4120.200195
1338.957138	4105.399902
1339.493071	4085.399902
1340.028949	4106.399902
1340.56477	4083.600098
1341.100536	4124.799805
1341.636246	4082.199951
1342.171901	4062.800049
1342.7075	4077.800049
1343.243043	4069.399902
1343.77853	4078.399902
1344.313962	4094.399902
1344.849338	4084.0
1345.384659	4045.600098
1345.919923	4065.800049
1346.455133	4032.600098
1346.990286	4080.600098
1347.525384	4059.800049
1348.060426	4065.0
1348.595412	4063.600098
1349.130343	4046.800049
1349.665218	4066.0
1350.200037	4049.199951
1350.734801	4038.600098
1351.269509	4030.600098
1351.804162	4054.800049
1352.338758	4016.800049
1352.8733	4039.399902
1353.407785	4025.0
1353.942215	4050.199951
1354.476589	4029.199951
1355.010908	4048.199951
1355.545171	3999.800049
1356.079379	4055.0
1356.61353	3997.600098
1357.147627	4054.399902
1357.681667	4054.600098
1358.215652	4030.399902
1358.749582	4041.199951
1359.283456	4017.600098
1359.817274	4008.399902
1360.351037	4039.800049
1360.884744	4005.600098
1361.418395	4000.800049
1361.951991	4012.399902
1362.485531	3995.199951
1363.019016	4054.0
1363.552445	4014.199951
1364.085819	4020.0
1364.619137	3994.600098
1365.1524	3994.800049
1365.685607	3987.800049
1366.218758	3998.600098
1366.751854	3994.800049
1367.284894	4014.0
1367.817879	4009.0
1368.350808	4002.800049
1368.883682	3996.600098
1369.4165	3973.0
1369.949263	3989.199951
1370.48197	4022.0
1371.014622	4004.199951
1371.547218	3961.199951
1372.079758	3993.0
1372.612244	3953.600098
1373.144673	3973.600098
1373.677047	3991.199951
1374.209366	3942.399902
1374.741629	3934.800049
1375.273836	3960.399902
1375.805989	3948.600098
1376.338085	3950.199951
1376.870126	3922.399902
1377.402112	3943.600098
1377.934042	3951.0
1378.465917	3938.399902
1378.997736	3948.0
1379.5295	3965.800049
1380.061208	3987.199951
1380.592861	3968.600098
1381.124459	3963.600098
1381.656	3919.800049
1382.187487	3963.199951
1382.718918	3900.600098
1383.250294	3968.600098
1383.781614	3943.399902
1384.312879	3939.199951
1384.844088	3912.199951
1385.375242	3972.199951
1385.90634	3932.800049
1386.437383	3952.600098
1386.968371	3970.0
1387.499303	4041.800049
1388.03018	4314.200195
1388.561001	5459.0
1389.091767	5763.600098
1389.622478	4375.600098
1390.153133	4007.199951
1390.683733	3961.399902
1391.214277	3950.0
1391.744766	3937.399902
1392.2752	3926.399902
1392.805578	3917.0
1393.335901	3919.399902
1393.866168	3921.0
1394.396381	3926.399902
1394.926537	3886.600098
1395.456639	3888.800049
1395.986685	3924.600098
1396.516675	3863.199951
1397.046611	3914.0
1397.576491	3888.600098
1398.106315	3898.199951
1398.636084	3881.600098
1399.165798	3904.800049
1399.695457	3883.399902
1400.22506	3908.600098
1400.754608	3878.399902
1401.284101	3893.800049
1401.813538	3842.600098
1402.34292	3881.399902
1402.872247	3845.399902
1403.401518	3838.199951
1403.930734	3868.800049
1404.459895	3850.800049
1404.989	3863.800049
1405.51805	3859.199951
1406.047045	3902.399902
1406.575984	3837.399902
1407.104869	3912.199951
1407.633697	3855.399902
1408.162471	3879.199951
1408.691189	3899.600098
1409.219852	3905.800049
1409.74846	3938.399902
1410.277013	4002.199951
1410.80551	3923.399902
1411.333952	3876.600098
1411.862339	3862.600098
1412.39067	3857.800049
1412.918946	3856.0
1413.447167	3835.199951
1413.975333	3863.199951
1414.503444	3846.199951
1415.031499	3889.399902
1415.559499	3868.800049
1416.087444	3860.800049
1416.615333	3827.600098
1417.143167	3879.800049
1417.670947	3806.600098
1418.19867	3838.399902
1418.726339	3813.0
1419.253952	3841.199951
1419.781511	3831.199951
1420.309014	3827.800049
1420.836461	3840.399902
1421.363854	3806.800049
1421.891191	3832.399902
1422.418474	3818.800049
1422.945701	3833.399902
1423.472872	3823.199951
1423.999989	3824.600098
1424.52705	3823.600098
1425.054057	3858.0
1425.581008	3825.600098
1426.107904	3847.0
1426.634745	3836.800049
1427.16153	3810.0
1427.688261	3833.800049
1428.214936	3833.399902
1428.741556	3807.600098
1429.268121	3809.600098
1429.794631	3800.0
1430.321085	3803.800049
1430.847485	3801.800049
1431.373829	3791.0
1431.900118	3830.0
1432.426353	3801.0
1432.952532	3778.399902
1433.478655	3793.399902
1434.004724	3809.600098
1434.530738	3790.0
1435.056696	3786.399902
1435.5826	3817.0
1436.108448	3788.600098
1436.634241	3756.800049
1437.159979	3776.600098
1437.685662	3757.800049
1438.21129	3804.199951
1438.736863	3778.600098
1439.262381	3794.199951
1439.787843	3775.600098
1440.313251	3774.600098
1440.838603	3768.0
1441.3639	3743.600098
1441.889143	3760.399902
1442.41433	3768.399902
1442.939462	3767.0
1443.464539	3773.0
1443.989561	3746.0
1444.514528	3746.399902
1445.03944	3739.800049
1445.564297	3740.600098
1446.089099	3744.0
1446.613846	3743.399902
1447.138537	3741.0
1447.663174	3742.199951
1448.187756	3723.600098
1448.712282	3737.600098
1449.236754	3727.199951
1449.761171	3757.399902
1450.285532	3724.0
1450.809839	3731.800049
1451.33409	3738.199951
1451.858287	3736.600098
1452.382428	3705.399902
1452.906515	3719.399902
1453.430546	3724.800049
1453.954523	3728.600098
1454.478444	3734.600098
1455.002311	3717.199951
1455.526123	3742.800049
1456.049879	3753.600098
1456.573581	3726.0
1457.097227	3675.0
1457.620819	3726.800049
1458.144356	3704.399902
1458.667837	3708.800049
1459.191264	3702.199951
1459.714636	3694.199951
1460.237952	3700.800049
1460.761214	3721.199951
1461.284421	3704.800049
1461.807573	3711.0
1462.33067	3673.800049
1462.853712	3671.600098
1463.376699	3674.399902
1463.899632	3687.399902
1464.422509	3691.199951
1464.945331	3678.600098
1465.468099	3671.0
1465.990811	3677.0
1466.513469	3691.199951
1467.036071	3663.800049
1467.558619	3695.600098
1468.081112	3670.399902
1468.60355	3661.0
1469.125933	3680.600098
1469.648261	3662.399902
1470.170534	3654.399902
1470.692752	3648.800049
1471.214916	3686.199951
1471.737024	3626.800049
1472.259078	3682.399902
1472.781077	3636.199951
1473.303021	3668.800049
1473.82491	3638.199951
1474.346744	3671.399902
1474.868523	3630.600098
1475.390248	3642.199951
1475.911917	3623.600098
1476.433532	3658.600098
1476.955092	3625.0
1477.476597	3632.199951
1477.998047	3645.0
1478.519442	3600.399902
1479.040783	3662.0
1479.562068	3647.399902
1480.083299	3665.600098
1480.604475	3635.0
1481.125596	3637.0
1481.646663	3629.800049
1482.167674	3625.399902
1482.688631	3603.800049
1483.209533	3610.600098
1483.73038	3610.800049
1484.251172	3602.800049
1484.771909	3636.800049
1485.292592	3601.0
1485.81322	3626.0
1486.333793	3599.800049
1486.854311	3644.199951
1487.374775	3581.800049
1487.895183	3600.0
1488.415537	3590.199951
1488.935836	3603.399902
1489.456081	3629.600098
1489.97627	3598.199951
1490.496405	3622.399902
1491.016485	3584.800049
1491.536511	3610.600098
1492.056481	3585.800049
1492.576397	3567.199951
1493.096258	3575.800049
1493.616064	3601.399902
1494.135816	3583.800049
1494.655513	3596.600098
1495.175155	3582.600098
1495.694742	3581.800049
1496.214274	3585.399902
1496.733752	3548.399902
1497.253175	3579.199951
1497.772544	3585.800049
1498.291858	3591.800049
1498.811116	3571.0
1499.330321	3568.600098
1499.84947	3602.399902
1500.368565	3546.0
1500.887605	3549.800049
1501.406591	3540.0
1501.925521	3577.0
1502.444397	3561.600098
1502.963219	3547.600098
1503.481985	3584.199951
1504.000697	3563.199951
1504.519355	3530.600098
1505.037957	3552.0
1505.556505	3554.600098
1506.074999	3546.800049
1506.593437	3532.199951
1507.111821	3541.600098
1507.63015	3507.600098
1508.148425	3532.800049
1508.666645	3533.399902
1509.18481	3507.199951
1509.702921	3528.399902
1510.220977	3503.399902
1510.738979	3567.199951
1511.256925	3523.600098
1511.774817	3515.199951
1512.292655	3543.800049
1512.810438	3540.399902
1513.328166	3545.0
1513.84584	3566.800049
1514.363459	3531.600098
1514.881023	3517.0
1515.398533	3497.600098
1515.915988	3522.0
1516.433389	3546.600098
1516.950734	3534.600098
1517.468026	3502.199951
1517.985263	3489.399902
1518.502445	3534.800049
1519.019572	3531.800049
1519.536645	3505.399902
1520.053664	3531.600098
1520.570628	3506.600098
1521.087537	3513.0
1521.604392	3500.199951
1522.121192	3526.199951
1522.637937	3504.399902
1523.154628	3510.199951
1523.671265	3509.800049
1524.187847	3502.600098
1524.704374	3508.600098
1525.220847	3503.600098
1525.737265	3493.199951
1526.253629	3496.0
1526.769938	3502.399902
1527.286192	3492.600098
1527.802392	3501.199951
1528.318538	3490.800049
1528.834629	3492.600098
1529.350666	3511.399902
1529.866648	3496.399902
1530.382575	3494.0
1530.898448	3485.199951
1531.414266	3527.600098
1531.93003	3483.399902
1532.44574	3502.0
1532.961395	3478.399902
1533.476995	3523.399902
1533.992541	3474.600098
1534.508033	3504.600098
1535.02347	3490.399902
1535.538852	3484.600098
1536.05418	3502.199951
1536.569454	3502.600098
1537.084673	3500.0
1537.599837	3463.399902
1538.114947	3488.399902
1538.630003	3461.0
1539.145004	3528.199951
1539.659951	3448.600098
1540.174843	3489.0
1540.689681	3486.600098
1541.204465	3472.800049
1541.719194	3499.399902
1542.233868	3481.0
1542.748488	3490.800049
1543.263054	3480.0
1543.777565	3479.199951
1544.292022	3465.0
1544.806424	3483.199951
1545.320772	3458.399902
1545.835066	3475.600098
1546.349305	3496.600098
1546.863489	3457.600098
1547.37762	3472.0
1547.891696	3464.600098
1548.405717	3458.399902
1548.919684	3484.600098
1549.433597	3476.800049
1549.947455	3492.199951
1550.461259	3441.199951
1550.975009	3480.199951
1551.488704	3464.0
1552.002345	3439.0
1552.515931	3482.0
1553.029463	3448.399902
1553.542941	3477.199951
1554.056364	3489.399902
1554.569733	3496.199951
1555.083048	3472.800049
1555.596308	3472.199951
1556.109514	3464.199951
1556.622665	3468.199951
1557.135762	3469.600098
1557.648805	3460.800049
1558.161794	3468.399902
1558.674728	3449.800049
1559.187608	3470.0
1559.700433	3448.0
1560.213205	3439.800049
1560.725921	3468.800049
1561.238584	3429.0
1561.751192	3448.0
1562.263746	3459.0
1562.776246	3450.600098
1563.288691	3438.399902
1563.801082	3437.800049
1564.313419	3455.199951
1564.825701	3440.800049
1565.337929	3457.199951
1565.850103	3471.600098
1566.362223	3445.600098
1566.874288	3472.600098
1567.386299	3430.399902
1567.898256	3426.600098
1568.410158	3408.0
1568.922007	3458.199951
1569.4338	3446.800049
1569.94554	3456.800049
1570.457226	3405.600098
1570.968857	3423.399902
1571.480434	3442.600098
1571.991956	3444.399902
1572.503425	3423.199951
1573.014839	3439.199951
1573.526199	3454.800049
1574.037505	3433.600098
1574.548756	3426.600098
1575.059953	3429.0
1575.571096	3441.0
1576.082185	3457.199951
1576.59322	3448.399902
1577.1042	3429.0
1577.615126	3441.600098
1578.125998	3447.600098
1578.636816	3399.399902
1579.14758	3435.199951
1579.658289	3429.399902
1580.168944	3419.600098
1580.679545	3397.399902
1581.190092	3421.800049
1581.700585	3414.600098
1582.211023	3420.399902
1582.721407	3431.800049
1583.231737	3397.600098
1583.742013	3435.0
1584.252235	3376.199951
1584.762403	3397.600098
1585.272516	3373.800049
1585.782575	3426.600098
1586.292581	3434.600098
1586.802532	3409.800049
1587.312428	3441.399902
1587.822271	3417.0
1588.33206	3412.199951
1588.841794	3390.399902
1589.351474	3397.399902
1589.8611	3355.800049
1590.370672	3428.0
1590.88019	3387.600098
1591.389654	3404.600098
1591.899064	3408.399902
