 1.042452273E+03	 3.197800049E+03
 1.043018714E+03	 3.180800049E+03
 1.043585098E+03	 3.184199951E+03
 1.044151424E+03	 3.189000000E+03
 1.044717692E+03	 3.188600098E+03
 1.045283903E+03	 3.185199951E+03
 1.045850056E+03	 3.159600098E+03
 1.046416151E+03	 3.181399902E+03
 1.046982188E+03	 3.194199951E+03
 1.047548167E+03	 3.159199951E+03
 1.048114089E+03	 3.191800049E+03
 1.048679953E+03	 3.170399902E+03
 1.049245760E+03	 3.137800049E+03
 1.049811509E+03	 3.170000000E+03
 1.050377200E+03	 3.179000000E+03
 1.050942833E+03	 3.158000000E+03
 1.051508408E+03	 3.158199951E+03
 1.052073926E+03	 3.149199951E+03
 1.052639387E+03	 3.157800049E+03
 1.053204789E+03	 3.157199951E+03
 1.053770134E+03	 3.182800049E+03
 1.054335421E+03	 3.152600098E+03
 1.054900651E+03	 3.151399902E+03
 1.055465823E+03	 3.141800049E+03
 1.056030937E+03	 3.163399902E+03
 1.056595993E+03	 3.161000000E+03
 1.057160992E+03	 3.132000000E+03
 1.057725934E+03	 3.181399902E+03
 1.058290817E+03	 3.157399902E+03
 1.058855643E+03	 3.132199951E+03
 1.059420411E+03	 3.152000000E+03
 1.059985122E+03	 3.137199951E+03
 1.060549775E+03	 3.158199951E+03
 1.061114371E+03	 3.135800049E+03
 1.061678908E+03	 3.137199951E+03
 1.062243389E+03	 3.105800049E+03
 1.062807811E+03	 3.150000000E+03
 1.063372176E+03	 3.136199951E+03
 1.063936483E+03	 3.137800049E+03
 1.064500733E+03	 3.104800049E+03
 1.065064925E+03	 3.113000000E+03
 1.065629060E+03	 3.110000000E+03
 1.066193137E+03	 3.137000000E+03
 1.066757156E+03	 3.117199951E+03
 1.067321118E+03	 3.095600098E+03
 1.067885022E+03	 3.079600098E+03
 1.068448869E+03	 3.101600098E+03
 1.069012658E+03	 3.127600098E+03
 1.069576390E+03	 3.119000000E+03
 1.070140063E+03	 3.107000000E+03
 1.070703680E+03	 3.112199951E+03
 1.071267239E+03	 3.117199951E+03
 1.071830740E+03	 3.121800049E+03
 1.072394184E+03	 3.060000000E+03
 1.072957570E+03	 3.091600098E+03
 1.073520899E+03	 3.078600098E+03
 1.074084170E+03	 3.086399902E+03
 1.074647383E+03	 3.097199951E+03
 1.075210540E+03	 3.080399902E+03
 1.075773638E+03	 3.070800049E+03
 1.076336679E+03	 3.105399902E+03
 1.076899663E+03	 3.057399902E+03
 1.077462589E+03	 3.087600098E+03
 1.078025457E+03	 3.035199951E+03
 1.078588268E+03	 3.084600098E+03
 1.079151022E+03	 3.060199951E+03
 1.079713718E+03	 3.055399902E+03
 1.080276356E+03	 3.061199951E+03
 1.080838937E+03	 3.081600098E+03
 1.081401461E+03	 3.040000000E+03
 1.081963927E+03	 3.098600098E+03
 1.082526336E+03	 3.071199951E+03
 1.083088687E+03	 3.055399902E+03
 1.083650981E+03	 3.026399902E+03
 1.084213217E+03	 3.043800049E+03
 1.084775396E+03	 3.018800049E+03
 1.085337517E+03	 3.019600098E+03
 1.085899581E+03	 3.010000000E+03
 1.086461587E+03	 3.050800049E+03
 1.087023536E+03	 3.013600098E+03
 1.087585428E+03	 3.050800049E+03
 1.088147262E+03	 3.001600098E+03
 1.088709039E+03	 3.061399902E+03
 1.089270758E+03	 3.002199951E+03
 1.089832420E+03	 3.037600098E+03
 1.090394024E+03	 3.023000000E+03
 1.090955571E+03	 3.024399902E+03
 1.091517061E+03	 3.010600098E+03
 1.092078493E+03	 2.994399902E+03
 1.092639868E+03	 2.990199951E+03
 1.093201185E+03	 3.025800049E+03
 1.093762445E+03	 3.012399902E+03
 1.094323648E+03	 3.023800049E+03
 1.094884793E+03	 2.967199951E+03
 1.095445881E+03	 3.014600098E+03
 1.096006911E+03	 2.977199951E+03
 1.096567884E+03	 3.017000000E+03
 1.097128800E+03	 2.964399902E+03
 1.097689659E+03	 2.992000000E+03
 1.098250460E+03	 2.963399902E+03
 1.098811203E+03	 2.998399902E+03
 1.099371890E+03	 2.971600098E+03
 1.099932518E+03	 3.018800049E+03
 1.100493090E+03	 2.958800049E+03
 1.101053604E+03	 2.982600098E+03
 1.101614061E+03	 2.951800049E+03
 1.102174461E+03	 2.979000000E+03
 1.102734803E+03	 2.928600098E+03
 1.103295088E+03	 2.970000000E+03
 1.103855316E+03	 2.935000000E+03
 1.104415486E+03	 2.983000000E+03
 1.104975599E+03	 2.939000000E+03
 1.105535655E+03	 2.951399902E+03
 1.106095653E+03	 2.920600098E+03
 1.106655594E+03	 2.932399902E+03
 1.107215478E+03	 2.916399902E+03
 1.107775305E+03	 2.939800049E+03
 1.108335074E+03	 2.916399902E+03
 1.108894786E+03	 2.952800049E+03
 1.109454440E+03	 2.897399902E+03
 1.110014038E+03	 2.948399902E+03
 1.110573578E+03	 2.919000000E+03
 1.111133061E+03	 2.931399902E+03
 1.111692486E+03	 2.908800049E+03
 1.112251854E+03	 2.946800049E+03
 1.112811165E+03	 2.889399902E+03
 1.113370419E+03	 2.901399902E+03
 1.113929616E+03	 2.897600098E+03
 1.114488755E+03	 2.945199951E+03
 1.115047837E+03	 2.911600098E+03
 1.115606862E+03	 2.944800049E+03
 1.116165830E+03	 2.888000000E+03
 1.116724740E+03	 2.896800049E+03
 1.117283593E+03	 2.896000000E+03
 1.117842389E+03	 2.907600098E+03
 1.118401128E+03	 2.889600098E+03
 1.118959809E+03	 2.878800049E+03
 1.119518433E+03	 2.874000000E+03
 1.120077000E+03	 2.922800049E+03
 1.120635510E+03	 2.880800049E+03
 1.121193963E+03	 2.875199951E+03
 1.121752358E+03	 2.886199951E+03
 1.122310697E+03	 2.907199951E+03
 1.122868978E+03	 2.880800049E+03
 1.123427202E+03	 2.878600098E+03
 1.123985368E+03	 2.873800049E+03
 1.124543478E+03	 2.867399902E+03
 1.125101530E+03	 2.877199951E+03
 1.125659526E+03	 2.879600098E+03
 1.126217464E+03	 2.875600098E+03
 1.126775345E+03	 2.878600098E+03
 1.127333168E+03	 2.874000000E+03
 1.127890935E+03	 2.896399902E+03
 1.128448644E+03	 2.855199951E+03
 1.129006297E+03	 2.910000000E+03
 1.129563892E+03	 2.857399902E+03
 1.130121430E+03	 2.871600098E+03
 1.130678911E+03	 2.854800049E+03
 1.131236335E+03	 2.876000000E+03
 1.131793701E+03	 2.851199951E+03
 1.132351011E+03	 2.862199951E+03
 1.132908263E+03	 2.866399902E+03
 1.133465458E+03	 2.828000000E+03
 1.134022597E+03	 2.855800049E+03
 1.134579678E+03	 2.857000000E+03
 1.135136702E+03	 2.833000000E+03
 1.135693669E+03	 2.851000000E+03
 1.136250578E+03	 2.866800049E+03
 1.136807431E+03	 2.874199951E+03
 1.137364227E+03	 2.874000000E+03
 1.137920965E+03	 2.853800049E+03
 1.138477647E+03	 2.864000000E+03
 1.139034271E+03	 2.844199951E+03
 1.139590839E+03	 2.845600098E+03
 1.140147349E+03	 2.833800049E+03
 1.140703802E+03	 2.843399902E+03
 1.141260198E+03	 2.839600098E+03
 1.141816537E+03	 2.856000000E+03
 1.142372820E+03	 2.829399902E+03
 1.142929045E+03	 2.874600098E+03
 1.143485213E+03	 2.828000000E+03
 1.144041323E+03	 2.836600098E+03
 1.144597377E+03	 2.847199951E+03
 1.145153374E+03	 2.862600098E+03
 1.145709314E+03	 2.809199951E+03
 1.146265197E+03	 2.839800049E+03
 1.146821023E+03	 2.838000000E+03
 1.147376792E+03	 2.859399902E+03
 1.147932503E+03	 2.829600098E+03
 1.148488158E+03	 2.819000000E+03
 1.149043756E+03	 2.800800049E+03
 1.149599297E+03	 2.828800049E+03
 1.150154781E+03	 2.818199951E+03
 1.150710207E+03	 2.856399902E+03
 1.151265577E+03	 2.841399902E+03
 1.151820890E+03	 2.831399902E+03
 1.152376146E+03	 2.834600098E+03
 1.152931345E+03	 2.847600098E+03
 1.153486487E+03	 2.832000000E+03
 1.154041572E+03	 2.834000000E+03
 1.154596600E+03	 2.824199951E+03
 1.155151571E+03	 2.854800049E+03
 1.155706485E+03	 2.813199951E+03
 1.156261342E+03	 2.870600098E+03
 1.156816142E+03	 2.834800049E+03
 1.157370885E+03	 2.845399902E+03
 1.157925572E+03	 2.806199951E+03
 1.158480201E+03	 2.845199951E+03
 1.159034774E+03	 2.821000000E+03
 1.159589289E+03	 2.835199951E+03
 1.160143748E+03	 2.828000000E+03
 1.160698149E+03	 2.841199951E+03
 1.161252494E+03	 2.826399902E+03
 1.161806782E+03	 2.826199951E+03
 1.162361013E+03	 2.806600098E+03
 1.162915187E+03	 2.810199951E+03
 1.163469304E+03	 2.826800049E+03
 1.164023364E+03	 2.811600098E+03
 1.164577368E+03	 2.794000000E+03
 1.165131314E+03	 2.817199951E+03
 1.165685204E+03	 2.815800049E+03
 1.166239036E+03	 2.816000000E+03
 1.166792812E+03	 2.807199951E+03
 1.167346531E+03	 2.824600098E+03
 1.167900193E+03	 2.781399902E+03
 1.168453798E+03	 2.823600098E+03
 1.169007347E+03	 2.792000000E+03
 1.169560838E+03	 2.813600098E+03
 1.170114273E+03	 2.807800049E+03
 1.170667650E+03	 2.823199951E+03
 1.171220971E+03	 2.812800049E+03
 1.171774235E+03	 2.798600098E+03
 1.172327443E+03	 2.795800049E+03
 1.172880593E+03	 2.780600098E+03
 1.173433687E+03	 2.808199951E+03
 1.173986723E+03	 2.790000000E+03
 1.174539703E+03	 2.801600098E+03
 1.175092626E+03	 2.782000000E+03
 1.175645493E+03	 2.801000000E+03
 1.176198302E+03	 2.777600098E+03
 1.176751055E+03	 2.797600098E+03
 1.177303751E+03	 2.814000000E+03
 1.177856390E+03	 2.787600098E+03
 1.178408972E+03	 2.799600098E+03
 1.178961498E+03	 2.792199951E+03
 1.179513966E+03	 2.770800049E+03
 1.180066378E+03	 2.779800049E+03
 1.180618733E+03	 2.753800049E+03
 1.181171032E+03	 2.774800049E+03
 1.181723273E+03	 2.759800049E+03
 1.182275458E+03	 2.791199951E+03
 1.182827586E+03	 2.798600098E+03
 1.183379657E+03	 2.767399902E+03
 1.183931672E+03	 2.754399902E+03
 1.184483630E+03	 2.767399902E+03
 1.185035531E+03	 2.755600098E+03
 1.185587375E+03	 2.786600098E+03
 1.186139162E+03	 2.739199951E+03
 1.186690893E+03	 2.754800049E+03
 1.187242567E+03	 2.763000000E+03
 1.187794184E+03	 2.775000000E+03
 1.188345745E+03	 2.751399902E+03
 1.188897249E+03	 2.770600098E+03
 1.189448696E+03	 2.749199951E+03
 1.190000086E+03	 2.760600098E+03
 1.190551420E+03	 2.756600098E+03
 1.191102697E+03	 2.755000000E+03
 1.191653918E+03	 2.754199951E+03
 1.192205081E+03	 2.735000000E+03
 1.192756188E+03	 2.750000000E+03
 1.193307238E+03	 2.777399902E+03
 1.193858232E+03	 2.746800049E+03
 1.194409169E+03	 2.742000000E+03
 1.194960049E+03	 2.750399902E+03
 1.195510872E+03	 2.725600098E+03
 1.196061639E+03	 2.740199951E+03
 1.196612349E+03	 2.745199951E+03
 1.197163003E+03	 2.728600098E+03
 1.197713599E+03	 2.739000000E+03
 1.198264139E+03	 2.751399902E+03
 1.198814623E+03	 2.724199951E+03
 1.199365050E+03	 2.729000000E+03
 1.199915420E+03	 2.743399902E+03
 1.200465734E+03	 2.719800049E+03
 1.201015990E+03	 2.723000000E+03
 1.201566191E+03	 2.728800049E+03
 1.202116334E+03	 2.710399902E+03
 1.202666421E+03	 2.720600098E+03
 1.203216452E+03	 2.715600098E+03
 1.203766425E+03	 2.729600098E+03
 1.204316343E+03	 2.682600098E+03
 1.204866203E+03	 2.708399902E+03
 1.205416007E+03	 2.716399902E+03
 1.205965754E+03	 2.706199951E+03
 1.206515445E+03	 2.714800049E+03
 1.207065079E+03	 2.681800049E+03
 1.207614657E+03	 2.674399902E+03
 1.208164177E+03	 2.704000000E+03
 1.208713642E+03	 2.689199951E+03
 1.209263050E+03	 2.684800049E+03
 1.209812401E+03	 2.703600098E+03
 1.210361695E+03	 2.697000000E+03
 1.210910933E+03	 2.693199951E+03
 1.211460115E+03	 2.676600098E+03
 1.212009240E+03	 2.670399902E+03
 1.212558308E+03	 2.675600098E+03
 1.213107320E+03	 2.699600098E+03
 1.213656275E+03	 2.681800049E+03
 1.214205174E+03	 2.693800049E+03
 1.214754016E+03	 2.684199951E+03
 1.215302801E+03	 2.669800049E+03
 1.215851530E+03	 2.683399902E+03
 1.216400203E+03	 2.675800049E+03
 1.216948819E+03	 2.677399902E+03
 1.217497378E+03	 2.671800049E+03
 1.218045881E+03	 2.657199951E+03
 1.218594327E+03	 2.685800049E+03
 1.219142717E+03	 2.667000000E+03
 1.219691051E+03	 2.655199951E+03
 1.220239327E+03	 2.670600098E+03
 1.220787548E+03	 2.672600098E+03
 1.221335712E+03	 2.675199951E+03
 1.221883819E+03	 2.648000000E+03
 1.222431870E+03	 2.656199951E+03
 1.222979864E+03	 2.663600098E+03
 1.223527802E+03	 2.665800049E+03
 1.224075683E+03	 2.668800049E+03
 1.224623508E+03	 2.641000000E+03
 1.225171277E+03	 2.646800049E+03
 1.225718989E+03	 2.636199951E+03
 1.226266644E+03	 2.644199951E+03
 1.226814243E+03	 2.652199951E+03
 1.227361786E+03	 2.622399902E+03
 1.227909272E+03	 2.639000000E+03
 1.228456702E+03	 2.636600098E+03
 1.229004075E+03	 2.624600098E+03
 1.229551392E+03	 2.629800049E+03
 1.230098652E+03	 2.653800049E+03
 1.230645856E+03	 2.631000000E+03
 1.231193003E+03	 2.626800049E+03
 1.231740094E+03	 2.631000000E+03
 1.232287129E+03	 2.622199951E+03
 1.232834107E+03	 2.624000000E+03
 1.233381029E+03	 2.606600098E+03
 1.233927894E+03	 2.632399902E+03
 1.234474703E+03	 2.622800049E+03
 1.235021455E+03	 2.643199951E+03
 1.235568151E+03	 2.638399902E+03
 1.236114791E+03	 2.632399902E+03
 1.236661374E+03	 2.598000000E+03
 1.237207901E+03	 2.622000000E+03
 1.237754372E+03	 2.620199951E+03
 1.238300786E+03	 2.609399902E+03
 1.238847144E+03	 2.607600098E+03
 1.239393445E+03	 2.617199951E+03
 1.239939690E+03	 2.615600098E+03
 1.240485879E+03	 2.610399902E+03
 1.241032011E+03	 2.623399902E+03
 1.241578087E+03	 2.603600098E+03
 1.242124106E+03	 2.619199951E+03
 1.242670070E+03	 2.589600098E+03
 1.243215976E+03	 2.599600098E+03
 1.243761827E+03	 2.608800049E+03
 1.244307621E+03	 2.598000000E+03
 1.244853359E+03	 2.608800049E+03
 1.245399040E+03	 2.638000000E+03
 1.245944665E+03	 2.596199951E+03
 1.246490234E+03	 2.611800049E+03
 1.247035746E+03	 2.592000000E+03
 1.247581203E+03	 2.579000000E+03
 1.248126602E+03	 2.591399902E+03
 1.248671946E+03	 2.590199951E+03
 1.249217233E+03	 2.599600098E+03
 1.249762464E+03	 2.580199951E+03
 1.250307638E+03	 2.602600098E+03
 1.250852757E+03	 2.592199951E+03
 1.251397819E+03	 2.598399902E+03
 1.251942824E+03	 2.591199951E+03
 1.252487774E+03	 2.592399902E+03
 1.253032667E+03	 2.585800049E+03
 1.253577503E+03	 2.588600098E+03
 1.254122284E+03	 2.570600098E+03
 1.254667008E+03	 2.575000000E+03
 1.255211676E+03	 2.565600098E+03
 1.255756288E+03	 2.591000000E+03
 1.256300843E+03	 2.584399902E+03
 1.256845342E+03	 2.558000000E+03
 1.257389785E+03	 2.553000000E+03
 1.257934172E+03	 2.560000000E+03
 1.258478502E+03	 2.582199951E+03
 1.259022776E+03	 2.568800049E+03
 1.259566994E+03	 2.575600098E+03
 1.260111156E+03	 2.586800049E+03
 1.260655261E+03	 2.557000000E+03
 1.261199311E+03	 2.548000000E+03
 1.261743304E+03	 2.560600098E+03
 1.262287240E+03	 2.559600098E+03
 1.262831121E+03	 2.549399902E+03
 1.263374945E+03	 2.559800049E+03
 1.263918713E+03	 2.554600098E+03
 1.264462425E+03	 2.560800049E+03
 1.265006081E+03	 2.591000000E+03
 1.265549680E+03	 2.573000000E+03
 1.266093223E+03	 2.576199951E+03
 1.266636711E+03	 2.560600098E+03
 1.267180141E+03	 2.572199951E+03
 1.267723516E+03	 2.553000000E+03
 1.268266835E+03	 2.554199951E+03
 1.268810097E+03	 2.547800049E+03
 1.269353303E+03	 2.538399902E+03
 1.269896453E+03	 2.562800049E+03
 1.270439547E+03	 2.541800049E+03
 1.270982584E+03	 2.538800049E+03
 1.271525566E+03	 2.546399902E+03
 1.272068491E+03	 2.524000000E+03
 1.272611360E+03	 2.558399902E+03
 1.273154173E+03	 2.553800049E+03
 1.273696930E+03	 2.544600098E+03
 1.274239631E+03	 2.516800049E+03
 1.274782275E+03	 2.534000000E+03
 1.275324864E+03	 2.532600098E+03
 1.275867396E+03	 2.536600098E+03
 1.276409872E+03	 2.538000000E+03
 1.276952292E+03	 2.537600098E+03
 1.277494656E+03	 2.525199951E+03
 1.278036964E+03	 2.546399902E+03
 1.278579215E+03	 2.511399902E+03
 1.279121411E+03	 2.504000000E+03
 1.279663550E+03	 2.518199951E+03
 1.280205634E+03	 2.537399902E+03
 1.280747661E+03	 2.513800049E+03
 1.281289632E+03	 2.525000000E+03
 1.281831547E+03	 2.511000000E+03
 1.282373406E+03	 2.527399902E+03
 1.282915209E+03	 2.526600098E+03
 1.283456955E+03	 2.516199951E+03
 1.283998646E+03	 2.527199951E+03
 1.284540281E+03	 2.559600098E+03
 1.285081859E+03	 2.682800049E+03
 1.285623381E+03	 2.888000000E+03
 1.286164848E+03	 2.725000000E+03
 1.286706258E+03	 2.551600098E+03
 1.287247612E+03	 2.533199951E+03
 1.287788911E+03	 2.507600098E+03
 1.288330153E+03	 2.506800049E+03
 1.288871339E+03	 2.500000000E+03
 1.289412469E+03	 2.510600098E+03
 1.289953543E+03	 2.519199951E+03
 1.290494561E+03	 2.484600098E+03
 1.291035523E+03	 2.505399902E+03
 1.291576428E+03	 2.485000000E+03
 1.292117278E+03	 2.511000000E+03
 1.292658072E+03	 2.484600098E+03
 1.293198810E+03	 2.483800049E+03
 1.293739492E+03	 2.490000000E+03
 1.294280118E+03	 2.491199951E+03
 1.294820687E+03	 2.508399902E+03
 1.295361201E+03	 2.487600098E+03
 1.295901659E+03	 2.470000000E+03
 1.296442061E+03	 2.488000000E+03
 1.296982406E+03	 2.487800049E+03
 1.297522696E+03	 2.474600098E+03
 1.298062930E+03	 2.472399902E+03
 1.298603108E+03	 2.460199951E+03
 1.299143229E+03	 2.464600098E+03
 1.299683295E+03	 2.463600098E+03
 1.300223305E+03	 2.471000000E+03
 1.300763259E+03	 2.470199951E+03
 1.301303157E+03	 2.467800049E+03
 1.301842999E+03	 2.463800049E+03
 1.302382785E+03	 2.474199951E+03
 1.302922515E+03	 2.470399902E+03
 1.303462189E+03	 2.491199951E+03
 1.304001807E+03	 2.452800049E+03
 1.304541369E+03	 2.443000000E+03
 1.305080875E+03	 2.455600098E+03
 1.305620326E+03	 2.473800049E+03
 1.306159720E+03	 2.447199951E+03
 1.306699058E+03	 2.464199951E+03
 1.307238341E+03	 2.462399902E+03
 1.307777567E+03	 2.469600098E+03
 1.308316738E+03	 2.463800049E+03
 1.308855853E+03	 2.448199951E+03
 1.309394912E+03	 2.439800049E+03
 1.309933915E+03	 2.452800049E+03
 1.310472862E+03	 2.426199951E+03
 1.311011753E+03	 2.454199951E+03
 1.311550588E+03	 2.424199951E+03
 1.312089367E+03	 2.455399902E+03
 1.312628090E+03	 2.436600098E+03
 1.313166758E+03	 2.420800049E+03
 1.313705370E+03	 2.429600098E+03
 1.314243925E+03	 2.467199951E+03
 1.314782425E+03	 2.429000000E+03
 1.315320869E+03	 2.435000000E+03
 1.315859257E+03	 2.428800049E+03
 1.316397589E+03	 2.443800049E+03
 1.316935866E+03	 2.433199951E+03
 1.317474086E+03	 2.416199951E+03
 1.318012251E+03	 2.433600098E+03
 1.318550360E+03	 2.424199951E+03
 1.319088413E+03	 2.423399902E+03
 1.319626410E+03	 2.423800049E+03
 1.320164351E+03	 2.410800049E+03
 1.320702236E+03	 2.417399902E+03
 1.321240066E+03	 2.412399902E+03
 1.321777839E+03	 2.438600098E+03
 1.322315557E+03	 2.403199951E+03
 1.322853219E+03	 2.418399902E+03
 1.323390826E+03	 2.420600098E+03
 1.323928376E+03	 2.420000000E+03
 1.324465871E+03	 2.415000000E+03
 1.325003309E+03	 2.425199951E+03
 1.325540692E+03	 2.411600098E+03
 1.326078020E+03	 2.422399902E+03
 1.326615291E+03	 2.413399902E+03
 1.327152506E+03	 2.395000000E+03
 1.327689666E+03	 2.396199951E+03
 1.328226770E+03	 2.411000000E+03
 1.328763818E+03	 2.405399902E+03
 1.329300811E+03	 2.407199951E+03
 1.329837747E+03	 2.392800049E+03
 1.330374628E+03	 2.407600098E+03
 1.330911453E+03	 2.385399902E+03
 1.331448222E+03	 2.415800049E+03
 1.331984936E+03	 2.401199951E+03
 1.332521594E+03	 2.411199951E+03
 1.333058196E+03	 2.389600098E+03
 1.333594742E+03	 2.383600098E+03
 1.334131232E+03	 2.404399902E+03
 1.334667667E+03	 2.406800049E+03
 1.335204046E+03	 2.374600098E+03
 1.335740369E+03	 2.392399902E+03
 1.336276637E+03	 2.409199951E+03
 1.336812848E+03	 2.364399902E+03
 1.337349004E+03	 2.389600098E+03
 1.337885105E+03	 2.386000000E+03
 1.338421149E+03	 2.370399902E+03
 1.338957138E+03	 2.382600098E+03
 1.339493071E+03	 2.374399902E+03
 1.340028949E+03	 2.355399902E+03
 1.340564770E+03	 2.398800049E+03
 1.341100536E+03	 2.376199951E+03
 1.341636246E+03	 2.370399902E+03
 1.342171901E+03	 2.387000000E+03
 1.342707500E+03	 2.399399902E+03
 1.343243043E+03	 2.387800049E+03
 1.343778530E+03	 2.354399902E+03
 1.344313962E+03	 2.340600098E+03
 1.344849338E+03	 2.380399902E+03
 1.345384659E+03	 2.367399902E+03
 1.345919923E+03	 2.359399902E+03
 1.346455133E+03	 2.362000000E+03
 1.346990286E+03	 2.363000000E+03
 1.347525384E+03	 2.359199951E+03
 1.348060426E+03	 2.358600098E+03
 1.348595412E+03	 2.365199951E+03
 1.349130343E+03	 2.367600098E+03
 1.349665218E+03	 2.367800049E+03
 1.350200037E+03	 2.373399902E+03
 1.350734801E+03	 2.380600098E+03
 1.351269509E+03	 2.347600098E+03
 1.351804162E+03	 2.363399902E+03
 1.352338758E+03	 2.346800049E+03
 1.352873300E+03	 2.378399902E+03
 1.353407785E+03	 2.326800049E+03
 1.353942215E+03	 2.372199951E+03
 1.354476589E+03	 2.342800049E+03
 1.355010908E+03	 2.362000000E+03
 1.355545171E+03	 2.330199951E+03
 1.356079379E+03	 2.335000000E+03
 1.356613530E+03	 2.327199951E+03
 1.357147627E+03	 2.362399902E+03
 1.357681667E+03	 2.338399902E+03
 1.358215652E+03	 2.336800049E+03
 1.358749582E+03	 2.321000000E+03
 1.359283456E+03	 2.332800049E+03
 1.359817274E+03	 2.364199951E+03
 1.360351037E+03	 2.331199951E+03
 1.360884744E+03	 2.344800049E+03
 1.361418395E+03	 2.334600098E+03
 1.361951991E+03	 2.330399902E+03
 1.362485531E+03	 2.338600098E+03
 1.363019016E+03	 2.330000000E+03
 1.363552445E+03	 2.344399902E+03
 1.364085819E+03	 2.330199951E+03
 1.364619137E+03	 2.318399902E+03
 1.365152400E+03	 2.332199951E+03
 1.365685607E+03	 2.315800049E+03
 1.366218758E+03	 2.330600098E+03
 1.366751854E+03	 2.310000000E+03
 1.367284894E+03	 2.329399902E+03
 1.367817879E+03	 2.317399902E+03
 1.368350808E+03	 2.318000000E+03
 1.368883682E+03	 2.321000000E+03
 1.369416500E+03	 2.307000000E+03
 1.369949263E+03	 2.318199951E+03
 1.370481970E+03	 2.333199951E+03
 1.371014622E+03	 2.319000000E+03
 1.371547218E+03	 2.309000000E+03
 1.372079758E+03	 2.324399902E+03
 1.372612244E+03	 2.304000000E+03
 1.373144673E+03	 2.330399902E+03
 1.373677047E+03	 2.302000000E+03
 1.374209366E+03	 2.314000000E+03
 1.374741629E+03	 2.281000000E+03
 1.375273836E+03	 2.317800049E+03
 1.375805989E+03	 2.296199951E+03
 1.376338085E+03	 2.295600098E+03
 1.376870126E+03	 2.296399902E+03
 1.377402112E+03	 2.296000000E+03
 1.377934042E+03	 2.297800049E+03
 1.378465917E+03	 2.313199951E+03
 1.378997736E+03	 2.314199951E+03
 1.379529500E+03	 2.285600098E+03
 1.380061208E+03	 2.320199951E+03
 1.380592861E+03	 2.277600098E+03
 1.381124459E+03	 2.284199951E+03
 1.381656000E+03	 2.293399902E+03
 1.382187487E+03	 2.315600098E+03
 1.382718918E+03	 2.294000000E+03
 1.383250294E+03	 2.299199951E+03
 1.383781614E+03	 2.290399902E+03
 1.384312879E+03	 2.294000000E+03
 1.384844088E+03	 2.293000000E+03
 1.385375242E+03	 2.302199951E+03
 1.385906340E+03	 2.291000000E+03
 1.386437383E+03	 2.291399902E+03
 1.386968371E+03	 2.304199951E+03
 1.387499303E+03	 2.307800049E+03
 1.388030180E+03	 2.375000000E+03
 1.388561001E+03	 2.713199951E+03
 1.389091767E+03	 2.893399902E+03
 1.389622478E+03	 2.445399902E+03
 1.390153133E+03	 2.326000000E+03
 1.390683733E+03	 2.282399902E+03
 1.391214277E+03	 2.288199951E+03
 1.391744766E+03	 2.266800049E+03
 1.392275200E+03	 2.259800049E+03
 1.392805578E+03	 2.262000000E+03
 1.393335901E+03	 2.288199951E+03
 1.393866168E+03	 2.265199951E+03
 1.394396381E+03	 2.275399902E+03
 1.394926537E+03	 2.280399902E+03
 1.395456639E+03	 2.269199951E+03
 1.395986685E+03	 2.254600098E+03
 1.396516675E+03	 2.255399902E+03
 1.397046611E+03	 2.277800049E+03
 1.397576491E+03	 2.256399902E+03
 1.398106315E+03	 2.275399902E+03
 1.398636084E+03	 2.255399902E+03
 1.399165798E+03	 2.269399902E+03
 1.399695457E+03	 2.235199951E+03
 1.400225060E+03	 2.275000000E+03
 1.400754608E+03	 2.252800049E+03
 1.401284101E+03	 2.246199951E+03
 1.401813538E+03	 2.251800049E+03
 1.402342920E+03	 2.247399902E+03
 1.402872247E+03	 2.269399902E+03
 1.403401518E+03	 2.254399902E+03
 1.403930734E+03	 2.242600098E+03
 1.404459895E+03	 2.253000000E+03
 1.404989000E+03	 2.251399902E+03
 1.405518050E+03	 2.256800049E+03
 1.406047045E+03	 2.243199951E+03
 1.406575984E+03	 2.237399902E+03
 1.407104869E+03	 2.262399902E+03
 1.407633697E+03	 2.240399902E+03
 1.408162471E+03	 2.256399902E+03
 1.408691189E+03	 2.227199951E+03
 1.409219852E+03	 2.259399902E+03
 1.409748460E+03	 2.270600098E+03
 1.410277013E+03	 2.282600098E+03
 1.410805510E+03	 2.260399902E+03
 1.411333952E+03	 2.261000000E+03
 1.411862339E+03	 2.263399902E+03
 1.412390670E+03	 2.234600098E+03
 1.412918946E+03	 2.232199951E+03
 1.413447167E+03	 2.260399902E+03
 1.413975333E+03	 2.222399902E+03
 1.414503444E+03	 2.217199951E+03
 1.415031499E+03	 2.233199951E+03
 1.415559499E+03	 2.239000000E+03
 1.416087444E+03	 2.237199951E+03
 1.416615333E+03	 2.231800049E+03
 1.417143167E+03	 2.228399902E+03
 1.417670947E+03	 2.245800049E+03
 1.418198670E+03	 2.229000000E+03
 1.418726339E+03	 2.214600098E+03
 1.419253952E+03	 2.229199951E+03
 1.419781511E+03	 2.210800049E+03
 1.420309014E+03	 2.228399902E+03
 1.420836461E+03	 2.222000000E+03
 1.421363854E+03	 2.224800049E+03
 1.421891191E+03	 2.218000000E+03
 1.422418474E+03	 2.237600098E+03
 1.422945701E+03	 2.238800049E+03
 1.423472872E+03	 2.216000000E+03
 1.423999989E+03	 2.219000000E+03
 1.424527050E+03	 2.217399902E+03
 1.425054057E+03	 2.243399902E+03
 1.425581008E+03	 2.229199951E+03
 1.426107904E+03	 2.232199951E+03
 1.426634745E+03	 2.232399902E+03
 1.427161530E+03	 2.217199951E+03
 1.427688261E+03	 2.227600098E+03
 1.428214936E+03	 2.220399902E+03
 1.428741556E+03	 2.214600098E+03
 1.429268121E+03	 2.219600098E+03
 1.429794631E+03	 2.228199951E+03
 1.430321085E+03	 2.206800049E+03
 1.430847485E+03	 2.238800049E+03
 1.431373829E+03	 2.221000000E+03
 1.431900118E+03	 2.225800049E+03
 1.432426353E+03	 2.225000000E+03
 1.432952532E+03	 2.213199951E+03
 1.433478655E+03	 2.209800049E+03
 1.434004724E+03	 2.202600098E+03
 1.434530738E+03	 2.197800049E+03
 1.435056696E+03	 2.185600098E+03
 1.435582600E+03	 2.209000000E+03
 1.436108448E+03	 2.204399902E+03
 1.436634241E+03	 2.189000000E+03
 1.437159979E+03	 2.197000000E+03
 1.437685662E+03	 2.200199951E+03
 1.438211290E+03	 2.187199951E+03
 1.438736863E+03	 2.204000000E+03
 1.439262381E+03	 2.205000000E+03
 1.439787843E+03	 2.193800049E+03
 1.440313251E+03	 2.194600098E+03
 1.440838603E+03	 2.161600098E+03
 1.441363900E+03	 2.185600098E+03
 1.441889143E+03	 2.190600098E+03
 1.442414330E+03	 2.179800049E+03
 1.442939462E+03	 2.181600098E+03
 1.443464539E+03	 2.182399902E+03
 1.443989561E+03	 2.186199951E+03
 1.444514528E+03	 2.178199951E+03
 1.445039440E+03	 2.173000000E+03
 1.445564297E+03	 2.164199951E+03
 1.446089099E+03	 2.169000000E+03
 1.446613846E+03	 2.171199951E+03
 1.447138537E+03	 2.166800049E+03
 1.447663174E+03	 2.166199951E+03
 1.448187756E+03	 2.165199951E+03
 1.448712282E+03	 2.169800049E+03
 1.449236754E+03	 2.179399902E+03
 1.449761171E+03	 2.166800049E+03
 1.450285532E+03	 2.163800049E+03
 1.450809839E+03	 2.141399902E+03
 1.451334090E+03	 2.144399902E+03
 1.451858287E+03	 2.165199951E+03
 1.452382428E+03	 2.168199951E+03
 1.452906515E+03	 2.176800049E+03
 1.453430546E+03	 2.157399902E+03
 1.453954523E+03	 2.146000000E+03
 1.454478444E+03	 2.152399902E+03
 1.455002311E+03	 2.175600098E+03
 1.455526123E+03	 2.154600098E+03
 1.456049879E+03	 2.162800049E+03
 1.456573581E+03	 2.163399902E+03
 1.457097227E+03	 2.172000000E+03
 1.457620819E+03	 2.155399902E+03
 1.458144356E+03	 2.163199951E+03
 1.458667837E+03	 2.175800049E+03
 1.459191264E+03	 2.169399902E+03
 1.459714636E+03	 2.162000000E+03
 1.460237952E+03	 2.141399902E+03
 1.460761214E+03	 2.172399902E+03
 1.461284421E+03	 2.149199951E+03
 1.461807573E+03	 2.141800049E+03
 1.462330670E+03	 2.163199951E+03
 1.462853712E+03	 2.133600098E+03
 1.463376699E+03	 2.160600098E+03
 1.463899632E+03	 2.133000000E+03
 1.464422509E+03	 2.148399902E+03
 1.464945331E+03	 2.134000000E+03
 1.465468099E+03	 2.155399902E+03
 1.465990811E+03	 2.147800049E+03
 1.466513469E+03	 2.131199951E+03
 1.467036071E+03	 2.140600098E+03
 1.467558619E+03	 2.136600098E+03
 1.468081112E+03	 2.131000000E+03
 1.468603550E+03	 2.162199951E+03
 1.469125933E+03	 2.141000000E+03
 1.469648261E+03	 2.142000000E+03
 1.470170534E+03	 2.130800049E+03
 1.470692752E+03	 2.127399902E+03
 1.471214916E+03	 2.130800049E+03
 1.471737024E+03	 2.110000000E+03
 1.472259078E+03	 2.124199951E+03
 1.472781077E+03	 2.138600098E+03
 1.473303021E+03	 2.145000000E+03
 1.473824910E+03	 2.121600098E+03
 1.474346744E+03	 2.131800049E+03
 1.474868523E+03	 2.119000000E+03
 1.475390248E+03	 2.123000000E+03
 1.475911917E+03	 2.118600098E+03
 1.476433532E+03	 2.107800049E+03
 1.476955092E+03	 2.114800049E+03
 1.477476597E+03	 2.109600098E+03
 1.477998047E+03	 2.124600098E+03
 1.478519442E+03	 2.130199951E+03
 1.479040783E+03	 2.111600098E+03
 1.479562068E+03	 2.111199951E+03
 1.480083299E+03	 2.122399902E+03
 1.480604475E+03	 2.110399902E+03
 1.481125596E+03	 2.100399902E+03
 1.481646663E+03	 2.104199951E+03
 1.482167674E+03	 2.116600098E+03
 1.482688631E+03	 2.106800049E+03
 1.483209533E+03	 2.104800049E+03
 1.483730380E+03	 2.114399902E+03
 1.484251172E+03	 2.117399902E+03
 1.484771909E+03	 2.095199951E+03
 1.485292592E+03	 2.112800049E+03
 1.485813220E+03	 2.110000000E+03
 1.486333793E+03	 2.099000000E+03
 1.486854311E+03	 2.116600098E+03
 1.487374775E+03	 2.117399902E+03
 1.487895183E+03	 2.096600098E+03
 1.488415537E+03	 2.104399902E+03
 1.488935836E+03	 2.117399902E+03
 1.489456081E+03	 2.088600098E+03
 1.489976270E+03	 2.099600098E+03
 1.490496405E+03	 2.083600098E+03
 1.491016485E+03	 2.101199951E+03
 1.491536511E+03	 2.100399902E+03
 1.492056481E+03	 2.080600098E+03
 1.492576397E+03	 2.091199951E+03
 1.493096258E+03	 2.093600098E+03
 1.493616064E+03	 2.084600098E+03
 1.494135816E+03	 2.083600098E+03
 1.494655513E+03	 2.090199951E+03
 1.495175155E+03	 2.092399902E+03
 1.495694742E+03	 2.076800049E+03
 1.496214274E+03	 2.064600098E+03
 1.496733752E+03	 2.070800049E+03
 1.497253175E+03	 2.110399902E+03
 1.497772544E+03	 2.090199951E+03
 1.498291858E+03	 2.059000000E+03
 1.498811116E+03	 2.090199951E+03
 1.499330321E+03	 2.083600098E+03
 1.499849470E+03	 2.088800049E+03
 1.500368565E+03	 2.076800049E+03
 1.500887605E+03	 2.080399902E+03
 1.501406591E+03	 2.088800049E+03
 1.501925521E+03	 2.063199951E+03
 1.502444397E+03	 2.087000000E+03
 1.502963219E+03	 2.067399902E+03
 1.503481985E+03	 2.068600098E+03
 1.504000697E+03	 2.071800049E+03
 1.504519355E+03	 2.078199951E+03
 1.505037957E+03	 2.081399902E+03
 1.505556505E+03	 2.048600098E+03
 1.506074999E+03	 2.083399902E+03
 1.506593437E+03	 2.070600098E+03
 1.507111821E+03	 2.044800049E+03
 1.507630150E+03	 2.061000000E+03
 1.508148425E+03	 2.069399902E+03
 1.508666645E+03	 2.057199951E+03
 1.509184810E+03	 2.061399902E+03
 1.509702921E+03	 2.068199951E+03
 1.510220977E+03	 2.073600098E+03
 1.510738979E+03	 2.078600098E+03
 1.511256925E+03	 2.052800049E+03
 1.511774817E+03	 2.066600098E+03
 1.512292655E+03	 2.069800049E+03
 1.512810438E+03	 2.055399902E+03
 1.513328166E+03	 2.055000000E+03
 1.513845840E+03	 2.051399902E+03
 1.514363459E+03	 2.053000000E+03
 1.514881023E+03	 2.067199951E+03
 1.515398533E+03	 2.040800049E+03
 1.515915988E+03	 2.062800049E+03
 1.516433389E+03	 2.069600098E+03
 1.516950734E+03	 2.052199951E+03
 1.517468026E+03	 2.066199951E+03
 1.517985263E+03	 2.048199951E+03
 1.518502445E+03	 2.073199951E+03
 1.519019572E+03	 2.065000000E+03
 1.519536645E+03	 2.031199951E+03
 1.520053664E+03	 2.072000000E+03
 1.520570628E+03	 2.042000000E+03
 1.521087537E+03	 2.040000000E+03
 1.521604392E+03	 2.054800049E+03
 1.522121192E+03	 2.070600098E+03
 1.522637937E+03	 2.042400024E+03
 1.523154628E+03	 2.055800049E+03
 1.523671265E+03	 2.063399902E+03
 1.524187847E+03	 2.049000000E+03
 1.524704374E+03	 2.049000000E+03
 1.525220847E+03	 2.037599976E+03
 1.525737265E+03	 2.037800049E+03
 1.526253629E+03	 2.046000000E+03
 1.526769938E+03	 2.049399902E+03
 1.527286192E+03	 2.056000000E+03
 1.527802392E+03	 2.057800049E+03
 1.528318538E+03	 2.041400024E+03
 1.528834629E+03	 2.044599976E+03
 1.529350666E+03	 2.038400024E+03
 1.529866648E+03	 2.017000000E+03
 1.530382575E+03	 2.048600098E+03
 1.530898448E+03	 2.042000000E+03
 1.531414266E+03	 2.045000000E+03
 1.531930030E+03	 2.029199951E+03
 1.532445740E+03	 2.044800049E+03
 1.532961395E+03	 2.040400024E+03
 1.533476995E+03	 2.030599976E+03
 1.533992541E+03	 2.033199951E+03
 1.534508033E+03	 2.033800049E+03
 1.535023470E+03	 2.037800049E+03
 1.535538852E+03	 2.033400024E+03
 1.536054180E+03	 2.051600098E+03
 1.536569454E+03	 2.031400024E+03
 1.537084673E+03	 2.053600098E+03
 1.537599837E+03	 2.052199951E+03
 1.538114947E+03	 2.041599976E+03
 1.538630003E+03	 2.043599976E+03
 1.539145004E+03	 2.018400024E+03
 1.539659951E+03	 2.052399902E+03
 1.540174843E+03	 2.027800049E+03
 1.540689681E+03	 2.012400024E+03
 1.541204465E+03	 2.033199951E+03
 1.541719194E+03	 2.035800049E+03
 1.542233868E+03	 2.037400024E+03
 1.542748488E+03	 2.033400024E+03
 1.543263054E+03	 2.029800049E+03
 1.543777565E+03	 2.035199951E+03
 1.544292022E+03	 2.028400024E+03
 1.544806424E+03	 2.039000000E+03
 1.545320772E+03	 2.040000000E+03
 1.545835066E+03	 2.026599976E+03
 1.546349305E+03	 2.042400024E+03
 1.546863489E+03	 2.031199951E+03
 1.547377620E+03	 2.031599976E+03
 1.547891696E+03	 2.038000000E+03
 1.548405717E+03	 2.015199951E+03
 1.548919684E+03	 2.028599976E+03
 1.549433597E+03	 2.005599976E+03
 1.549947455E+03	 2.024400024E+03
 1.550461259E+03	 2.017599976E+03
 1.550975009E+03	 2.036199951E+03
 1.551488704E+03	 2.021400024E+03
 1.552002345E+03	 2.011800049E+03
 1.552515931E+03	 2.024599976E+03
 1.553029463E+03	 2.039400024E+03
 1.553542941E+03	 2.029400024E+03
 1.554056364E+03	 2.038599976E+03
 1.554569733E+03	 2.035000000E+03
 1.555083048E+03	 2.030199951E+03
 1.555596308E+03	 2.016400024E+03
 1.556109514E+03	 2.015599976E+03
 1.556622665E+03	 2.014400024E+03
 1.557135762E+03	 2.027800049E+03
 1.557648805E+03	 2.034400024E+03
 1.558161794E+03	 2.014199951E+03
 1.558674728E+03	 2.040800049E+03
 1.559187608E+03	 2.001000000E+03
 1.559700433E+03	 2.010000000E+03
 1.560213205E+03	 2.016199951E+03
 1.560725921E+03	 2.029400024E+03
 1.561238584E+03	 2.021000000E+03
 1.561751192E+03	 2.030800049E+03
 1.562263746E+03	 2.018599976E+03
 1.562776246E+03	 2.011400024E+03
 1.563288691E+03	 2.034199951E+03
 1.563801082E+03	 2.018800049E+03
 1.564313419E+03	 2.032800049E+03
 1.564825701E+03	 2.017800049E+03
 1.565337929E+03	 2.011599976E+03
 1.565850103E+03	 2.013199951E+03
 1.566362223E+03	 2.016800049E+03
 1.566874288E+03	 2.006000000E+03
 1.567386299E+03	 1.999400024E+03
 1.567898256E+03	 2.028199951E+03
 1.568410158E+03	 2.003599976E+03
 1.568922007E+03	 2.021199951E+03
 1.569433800E+03	 2.005800049E+03
 1.569945540E+03	 2.009599976E+03
 1.570457226E+03	 2.009400024E+03
 1.570968857E+03	 2.015400024E+03
 1.571480434E+03	 1.997800049E+03
 1.571991956E+03	 2.009000000E+03
 1.572503425E+03	 1.999800049E+03
 1.573014839E+03	 1.984800049E+03
 1.573526199E+03	 2.006000000E+03
 1.574037505E+03	 2.013800049E+03
 1.574548756E+03	 2.012400024E+03
 1.575059953E+03	 1.984800049E+03
 1.575571096E+03	 2.010599976E+03
 1.576082185E+03	 1.987400024E+03
 1.576593220E+03	 2.004599976E+03
 1.577104200E+03	 2.007800049E+03
 1.577615126E+03	 1.997199951E+03
 1.578125998E+03	 2.002400024E+03
 1.578636816E+03	 2.001199951E+03
 1.579147580E+03	 1.997800049E+03
 1.579658289E+03	 1.992000000E+03
 1.580168944E+03	 2.016199951E+03
 1.580679545E+03	 1.961400024E+03
 1.581190092E+03	 1.993400024E+03
 1.581700585E+03	 1.992400024E+03
 1.582211023E+03	 1.994599976E+03
 1.582721407E+03	 1.981599976E+03
 1.583231737E+03	 1.985400024E+03
 1.583742013E+03	 1.980199951E+03
 1.584252235E+03	 1.984199951E+03
 1.584762403E+03	 2.003800049E+03
 1.585272516E+03	 1.990000000E+03
 1.585782575E+03	 2.008599976E+03
 1.586292581E+03	 2.008000000E+03
 1.586802532E+03	 2.005199951E+03
 1.587312428E+03	 1.985199951E+03
 1.587822271E+03	 2.008599976E+03
 1.588332060E+03	 1.987000000E+03
 1.588841794E+03	 1.986400024E+03
 1.589351474E+03	 1.978800049E+03
 1.589861100E+03	 1.975599976E+03
 1.590370672E+03	 1.996400024E+03
 1.590880190E+03	 1.988000000E+03
 1.591389654E+03	 1.995599976E+03
 1.591899064E+03	 1.996400024E+03
 1.592408419E+03	 1.977400024E+03
