1042.452273	6224.399902
1043.018714	6260.799805
1043.585098	6257.600098
1044.151424	6252.200195
1044.717692	6230.799805
1045.283903	6232.600098
1045.850056	6211.600098
1046.416151	6262.200195
1046.982188	6179.799805
1047.548167	6237.600098
1048.114089	6189.200195
1048.679953	6205.600098
1049.24576	6175.399902
1049.811509	6206.799805
1050.3772	6186.0
1050.942833	6219.399902
1051.508408	6163.799805
1052.073926	6178.799805
1052.639387	6153.0
1053.204789	6181.200195
1053.770134	6190.600098
1054.335421	6198.0
1054.900651	6173.399902
1055.465823	6164.600098
1056.030937	6149.799805
1056.595993	6203.399902
1057.160992	6136.799805
1057.725934	6171.600098
1058.290817	6144.0
1058.855643	6164.600098
1059.420411	6155.600098
1059.985122	6129.200195
1060.549775	6145.600098
1061.114371	6116.200195
1061.678908	6149.799805
1062.243389	6153.200195
1062.807811	6140.799805
1063.372176	6095.0
1063.936483	6120.600098
1064.500733	6075.200195
1065.064925	6139.0
1065.62906	6091.399902
1066.193137	6161.200195
1066.757156	6072.399902
1067.321118	6124.600098
1067.885022	6056.0
1068.448869	6065.799805
1069.012658	6090.799805
1069.57639	6087.200195
1070.140063	6073.200195
1070.70368	6107.200195
1071.267239	6037.399902
1071.83074	6080.600098
1072.394184	6047.0
1072.95757	6070.799805
1073.520899	6040.399902
1074.08417	6030.799805
1074.647383	6020.399902
1075.21054	6049.799805
1075.773638	6001.399902
1076.336679	6001.200195
1076.899663	5976.200195
1077.462589	6000.200195
1078.025457	5962.200195
1078.588268	6019.200195
1079.151022	5918.799805
1079.713718	5960.799805
1080.276356	5966.0
1080.838937	5942.799805
1081.401461	5895.600098
1081.963927	5970.399902
1082.526336	5933.200195
1083.088687	5985.399902
1083.650981	5925.0
1084.213217	5988.0
1084.775396	5875.600098
1085.337517	5962.600098
1085.899581	5835.600098
1086.461587	5906.799805
1087.023536	5863.200195
1087.585428	5914.200195
1088.147262	5853.200195
1088.709039	5903.799805
1089.270758	5835.399902
1089.83242	5911.200195
1090.394024	5835.0
1090.955571	5889.399902
1091.517061	5809.600098
1092.078493	5864.600098
1092.639868	5812.600098
1093.201185	5843.0
1093.762445	5800.399902
1094.323648	5844.600098
1094.884793	5733.200195
1095.445881	5814.200195
1096.006911	5751.600098
1096.567884	5788.600098
1097.1288	5752.200195
1097.689659	5824.0
1098.25046	5778.799805
1098.811203	5803.200195
1099.37189	5768.799805
1099.932518	5792.0
1100.49309	5731.0
1101.053604	5775.399902
1101.614061	5702.0
1102.174461	5753.600098
1102.734803	5725.0
1103.295088	5700.600098
1103.855316	5658.799805
1104.415486	5741.600098
1104.975599	5665.0
1105.535655	5714.799805
1106.095653	5640.600098
1106.655594	5687.399902
1107.215478	5618.0
1107.775305	5659.200195
1108.335074	5616.200195
1108.894786	5668.799805
1109.45444	5596.600098
1110.014038	5702.799805
1110.573578	5613.799805
1111.133061	5620.799805
1111.692486	5611.799805
1112.251854	5614.799805
1112.811165	5553.799805
1113.370419	5640.0
1113.929616	5584.200195
1114.488755	5645.600098
1115.047837	5566.399902
1115.606862	5622.600098
1116.16583	5612.200195
1116.72474	5618.600098
1117.283593	5548.600098
1117.842389	5593.399902
1118.401128	5548.799805
1118.959809	5584.600098
1119.518433	5510.600098
1120.077	5582.0
1120.63551	5564.200195
1121.193963	5570.600098
1121.752358	5522.399902
1122.310697	5568.799805
1122.868978	5523.200195
1123.427202	5558.600098
1123.985368	5531.399902
1124.543478	5533.0
1125.10153	5519.600098
1125.659526	5516.0
1126.217464	5507.200195
1126.775345	5544.399902
1127.333168	5511.0
1127.890935	5517.0
1128.448644	5543.799805
1129.006297	5530.0
1129.563892	5493.799805
1130.12143	5506.200195
1130.678911	5490.200195
1131.236335	5493.799805
1131.793701	5500.799805
1132.351011	5486.0
1132.908263	5491.200195
1133.465458	5442.0
1134.022597	5478.600098
1134.579678	5439.600098
1135.136702	5472.600098
1135.693669	5472.0
1136.250578	5478.600098
1136.807431	5435.200195
1137.364227	5483.200195
1137.920965	5509.200195
1138.477647	5492.600098
1139.034271	5432.399902
1139.590839	5507.399902
1140.147349	5443.0
1140.703802	5469.399902
1141.260198	5448.799805
1141.816537	5481.399902
1142.37282	5430.399902
1142.929045	5489.399902
1143.485213	5441.0
1144.041323	5455.399902
1144.597377	5428.799805
1145.153374	5446.0
1145.709314	5441.200195
1146.265197	5451.0
1146.821023	5415.399902
1147.376792	5479.799805
1147.932503	5427.600098
1148.488158	5454.399902
1149.043756	5392.799805
1149.599297	5454.600098
1150.154781	5442.200195
1150.710207	5444.399902
1151.265577	5413.200195
1151.82089	5454.0
1152.376146	5424.200195
1152.931345	5436.399902
1153.486487	5413.799805
1154.041572	5391.600098
1154.5966	5418.200195
1155.151571	5414.0
1155.706485	5373.600098
1156.261342	5445.600098
1156.816142	5418.600098
1157.370885	5420.0
1157.925572	5428.200195
1158.480201	5449.799805
1159.034774	5416.799805
1159.589289	5445.200195
1160.143748	5360.0
1160.698149	5372.200195
1161.252494	5414.799805
1161.806782	5393.799805
1162.361013	5378.0
1162.915187	5404.200195
1163.469304	5365.399902
1164.023364	5388.600098
1164.577368	5338.399902
1165.131314	5377.200195
1165.685204	5335.600098
1166.239036	5355.200195
1166.792812	5369.0
1167.346531	5357.799805
1167.900193	5353.600098
1168.453798	5346.399902
1169.007347	5339.399902
1169.560838	5359.200195
1170.114273	5364.200195
1170.66765	5382.799805
1171.220971	5325.0
1171.774235	5322.399902
1172.327443	5338.600098
1172.880593	5323.600098
1173.433687	5324.600098
1173.986723	5320.799805
1174.539703	5339.200195
1175.092626	5313.399902
1175.645493	5314.200195
1176.198302	5299.200195
1176.751055	5306.799805
1177.303751	5275.200195
1177.85639	5356.600098
1178.408972	5308.399902
1178.961498	5281.0
1179.513966	5264.399902
1180.066378	5314.200195
1180.618733	5292.600098
1181.171032	5272.200195
1181.723273	5280.0
1182.275458	5292.0
1182.827586	5293.399902
1183.379657	5271.0
1183.931672	5286.600098
1184.48363	5269.0
1185.035531	5231.399902
1185.587375	5233.399902
1186.139162	5239.799805
1186.690893	5260.399902
1187.242567	5240.200195
1187.794184	5273.399902
1188.345745	5201.399902
1188.897249	5256.399902
1189.448696	5207.200195
1190.000086	5256.200195
1190.55142	5190.0
1191.102697	5217.799805
1191.653918	5226.799805
1192.205081	5211.200195
1192.756188	5206.399902
1193.307238	5218.600098
1193.858232	5205.0
1194.409169	5177.200195
1194.960049	5211.200195
1195.510872	5209.200195
1196.061639	5218.600098
1196.612349	5190.0
1197.163003	5187.200195
1197.713599	5202.600098
1198.264139	5227.0
1198.814623	5126.399902
1199.36505	5177.799805
1199.91542	5135.0
1200.465734	5195.600098
1201.01599	5164.0
1201.566191	5185.0
1202.116334	5155.200195
1202.666421	5094.799805
1203.216452	5147.799805
1203.766425	5176.799805
1204.316343	5121.200195
1204.866203	5146.799805
1205.416007	5139.799805
1205.965754	5140.399902
1206.515445	5099.600098
1207.065079	5151.799805
1207.614657	5106.799805
1208.164177	5084.0
1208.713642	5075.0
1209.26305	5122.799805
1209.812401	5118.399902
1210.361695	5129.200195
1210.910933	5098.799805
1211.460115	5099.0
1212.00924	5090.399902
1212.558308	5086.399902
1213.10732	5118.200195
1213.656275	5086.399902
1214.205174	5076.799805
1214.754016	5056.799805
1215.302801	5054.399902
1215.85153	5072.200195
1216.400203	5037.399902
1216.948819	5048.799805
1217.497378	5030.0
1218.045881	5063.600098
1218.594327	5037.799805
1219.142717	5059.600098
1219.691051	5052.399902
1220.239327	5040.0
1220.787548	5042.600098
1221.335712	5066.799805
1221.883819	5025.0
1222.43187	5029.799805
1222.979864	5026.0
1223.527802	5022.0
1224.075683	4998.399902
1224.623508	5015.799805
1225.171277	5012.0
1225.718989	5039.200195
1226.266644	4994.200195
1226.814243	5021.399902
1227.361786	4993.0
1227.909272	4995.600098
1228.456702	5038.399902
1229.004075	5001.399902
1229.551392	4978.799805
1230.098652	4984.600098
1230.645856	4995.200195
1231.193003	4981.0
1231.740094	4988.0
1232.287129	4967.600098
1232.834107	4974.399902
1233.381029	4961.200195
1233.927894	4959.399902
1234.474703	4982.600098
1235.021455	4927.399902
1235.568151	4962.200195
1236.114791	4957.0
1236.661374	4922.600098
1237.207901	4943.799805
1237.754372	4925.200195
1238.300786	4911.799805
1238.847144	4934.0
1239.393445	4956.600098
1239.93969	4920.200195
1240.485879	4946.600098
1241.032011	4947.0
1241.578087	4912.799805
1242.124106	4930.399902
1242.67007	4919.200195
1243.215976	4901.399902
1243.761827	4895.200195
1244.307621	4885.600098
1244.853359	4899.600098
1245.39904	4894.200195
1245.944665	4946.799805
1246.490234	4909.600098
1247.035746	4869.200195
1247.581203	4902.600098
1248.126602	4874.0
1248.671946	4862.0
1249.217233	4895.600098
1249.762464	4916.799805
1250.307638	4856.799805
1250.852757	4868.399902
1251.397819	4877.399902
1251.942824	4885.799805
1252.487774	4874.0
1253.032667	4869.200195
1253.577503	4859.600098
1254.122284	4848.600098
1254.667008	4855.799805
1255.211676	4884.799805
1255.756288	4873.600098
1256.300843	4845.200195
1256.845342	4812.600098
1257.389785	4858.200195
1257.934172	4814.200195
1258.478502	4830.200195
1259.022776	4847.600098
1259.566994	4841.799805
1260.111156	4847.600098
1260.655261	4843.0
1261.199311	4826.799805
1261.743304	4827.399902
1262.28724	4810.600098
1262.831121	4857.0
1263.374945	4843.399902
1263.918713	4833.600098
1264.462425	4838.600098
1265.006081	4796.0
1265.54968	4804.799805
1266.093223	4799.799805
1266.636711	4765.600098
1267.180141	4759.799805
1267.723516	4783.600098
1268.266835	4779.799805
1268.810097	4803.399902
1269.353303	4772.399902
1269.896453	4773.600098
1270.439547	4768.0
1270.982584	4797.600098
1271.525566	4783.399902
1272.068491	4775.200195
1272.61136	4759.0
1273.154173	4779.600098
1273.69693	4770.399902
1274.239631	4763.600098
1274.782275	4756.0
1275.324864	4747.0
1275.867396	4765.200195
1276.409872	4757.399902
1276.952292	4738.600098
1277.494656	4729.399902
1278.036964	4762.799805
1278.579215	4743.200195
1279.121411	4745.0
1279.66355	4748.0
1280.205634	4725.399902
1280.747661	4741.0
1281.289632	4756.799805
1281.831547	4761.399902
1282.373406	4719.799805
1282.915209	4728.200195
1283.456955	4710.399902
1283.998646	4743.0
1284.540281	4731.600098
1285.081859	4795.0
1285.623381	4941.399902
1286.164848	4815.0
1286.706258	4713.600098
1287.247612	4714.600098
1287.788911	4669.799805
1288.330153	4694.200195
1288.871339	4688.799805
1289.412469	4721.200195
1289.953543	4675.200195
1290.494561	4702.200195
1291.035523	4690.0
1291.576428	4685.600098
1292.117278	4681.399902
1292.658072	4655.200195
1293.19881	4654.399902
1293.739492	4651.799805
1294.280118	4680.200195
1294.820687	4671.600098
1295.361201	4649.600098
1295.901659	4680.0
1296.442061	4639.200195
1296.982406	4623.200195
1297.522696	4656.799805
1298.06293	4629.0
1298.603108	4633.799805
1299.143229	4657.399902
1299.683295	4654.399902
1300.223305	4603.399902
1300.763259	4682.399902
1301.303157	4614.600098
1301.842999	4614.200195
1302.382785	4604.399902
1302.922515	4582.399902
1303.462189	4628.0
1304.001807	4642.0
1304.541369	4610.0
1305.080875	4601.0
1305.620326	4611.399902
1306.15972	4591.399902
1306.699058	4606.799805
1307.238341	4559.200195
1307.777567	4610.0
1308.316738	4571.600098
1308.855853	4585.399902
1309.394912	4578.399902
1309.933915	4591.399902
1310.472862	4563.399902
1311.011753	4574.0
1311.550588	4574.0
1312.089367	4591.799805
1312.62809	4556.200195
1313.166758	4565.200195
1313.70537	4583.399902
1314.243925	4558.799805
1314.782425	4554.200195
1315.320869	4534.200195
1315.859257	4553.399902
1316.397589	4538.600098
1316.935866	4555.0
1317.474086	4541.0
1318.012251	4534.600098
1318.55036	4534.799805
1319.088413	4547.200195
1319.62641	4528.0
1320.164351	4502.600098
1320.702236	4519.200195
1321.240066	4526.399902
1321.777839	4522.0
1322.315557	4528.399902
1322.853219	4505.799805
1323.390826	4530.200195
1323.928376	4492.399902
1324.465871	4506.399902
1325.003309	4510.200195
1325.540692	4492.399902
1326.07802	4534.399902
1326.615291	4485.0
1327.152506	4466.600098
1327.689666	4505.799805
1328.22677	4475.600098
1328.763818	4459.600098
1329.300811	4485.600098
1329.837747	4461.399902
1330.374628	4497.0
1330.911453	4421.399902
1331.448222	4494.399902
1331.984936	4450.399902
1332.521594	4483.600098
1333.058196	4425.0
1333.594742	4478.0
1334.131232	4481.0
1334.667667	4476.799805
1335.204046	4466.200195
1335.740369	4488.399902
1336.276637	4479.799805
1336.812848	4448.0
1337.349004	4489.399902
1337.885105	4436.399902
1338.421149	4496.200195
1338.957138	4451.200195
1339.493071	4462.399902
1340.028949	4445.200195
1340.56477	4459.399902
1341.100536	4431.799805
1341.636246	4456.0
1342.171901	4426.0
1342.7075	4444.600098
1343.243043	4452.399902
1343.77853	4450.200195
1344.313962	4431.399902
1344.849338	4442.0
1345.384659	4388.600098
1345.919923	4424.399902
1346.455133	4393.200195
1346.990286	4433.0
1347.525384	4432.799805
1348.060426	4414.399902
1348.595412	4423.200195
1349.130343	4395.799805
1349.665218	4423.600098
1350.200037	4418.799805
1350.734801	4427.0
1351.269509	4395.200195
1351.804162	4416.399902
1352.338758	4407.399902
1352.8733	4406.0
1353.407785	4377.799805
1353.942215	4379.799805
1354.476589	4390.200195
1355.010908	4405.200195
1355.545171	4376.399902
1356.079379	4383.399902
1356.61353	4376.399902
1357.147627	4415.799805
1357.681667	4330.399902
1358.215652	4373.200195
1358.749582	4393.200195
1359.283456	4360.600098
1359.817274	4399.399902
1360.351037	4342.200195
1360.884744	4364.399902
1361.418395	4349.0
1361.951991	4371.399902
1362.485531	4366.799805
1363.019016	4380.600098
1363.552445	4364.399902
1364.085819	4357.200195
1364.619137	4339.0
1365.1524	4358.399902
1365.685607	4308.200195
1366.218758	4351.200195
1366.751854	4317.600098
1367.284894	4328.799805
1367.817879	4330.200195
1368.350808	4349.600098
1368.883682	4304.799805
1369.4165	4310.0
1369.949263	4318.200195
1370.48197	4283.399902
1371.014622	4340.399902
1371.547218	4310.399902
1372.079758	4341.200195
1372.612244	4282.200195
1373.144673	4346.399902
1373.677047	4274.0
1374.209366	4317.600098
1374.741629	4285.799805
1375.273836	4313.0
1375.805989	4300.600098
1376.338085	4279.600098
1376.870126	4282.799805
1377.402112	4253.200195
1377.934042	4294.200195
1378.465917	4298.200195
1378.997736	4288.600098
1379.5295	4298.600098
1380.061208	4291.799805
1380.592861	4261.399902
1381.124459	4277.600098
1381.656	4252.0
1382.187487	4285.200195
1382.718918	4261.600098
1383.250294	4290.600098
1383.781614	4268.399902
1384.312879	4272.0
1384.844088	4244.399902
1385.375242	4260.0
1385.90634	4249.799805
1386.437383	4273.799805
1386.968371	4281.0
1387.499303	4282.600098
1388.03018	4301.600098
1388.561001	4495.0
1389.091767	4626.600098
1389.622478	4327.0
1390.153133	4273.0
1390.683733	4211.799805
1391.214277	4254.799805
1391.744766	4210.399902
1392.2752	4248.0
1392.805578	4213.399902
1393.335901	4230.200195
1393.866168	4229.600098
1394.396381	4218.399902
1394.926537	4249.200195
1395.456639	4223.600098
1395.986685	4226.200195
1396.516675	4199.600098
1397.046611	4270.0
1397.576491	4221.0
1398.106315	4244.0
1398.636084	4195.600098
1399.165798	4212.399902
1399.695457	4231.399902
1400.22506	4218.799805
1400.754608	4202.600098
1401.284101	4205.399902
1401.813538	4214.0
1402.34292	4212.600098
1402.872247	4228.600098
1403.401518	4193.200195
1403.930734	4188.0
1404.459895	4233.200195
1404.989	4246.399902
1405.51805	4205.600098
1406.047045	4187.0
1406.575984	4182.200195
1407.104869	4197.200195
1407.633697	4183.399902
1408.162471	4206.600098
1408.691189	4196.600098
1409.219852	4217.200195
1409.74846	4198.600098
1410.277013	4237.799805
1410.80551	4184.799805
1411.333952	4192.200195
1411.862339	4195.200195
1412.39067	4179.0
1412.918946	4188.799805
1413.447167	4194.0
1413.975333	4181.399902
1414.503444	4184.200195
1415.031499	4195.799805
1415.559499	4171.799805
1416.087444	4156.799805
1416.615333	4176.799805
1417.143167	4167.799805
1417.670947	4175.200195
1418.19867	4168.799805
1418.726339	4151.399902
1419.253952	4184.600098
1419.781511	4188.600098
1420.309014	4166.0
1420.836461	4178.0
1421.363854	4152.399902
1421.891191	4172.600098
1422.418474	4164.600098
1422.945701	4184.200195
1423.472872	4149.0
1423.999989	4180.799805
1424.52705	4143.600098
1425.054057	4160.200195
1425.581008	4160.799805
1426.107904	4171.600098
1426.634745	4151.399902
1427.16153	4181.799805
1427.688261	4109.799805
1428.214936	4135.0
1428.741556	4129.399902
1429.268121	4110.200195
1429.794631	4126.799805
1430.321085	4141.600098
1430.847485	4137.0
1431.373829	4117.200195
1431.900118	4118.0
1432.426353	4110.0
1432.952532	4141.799805
1433.478655	4121.200195
1434.004724	4110.799805
1434.530738	4097.799805
1435.056696	4083.399902
1435.5826	4098.399902
1436.108448	4101.600098
1436.634241	4116.799805
1437.159979	4085.399902
1437.685662	4112.200195
1438.21129	4101.399902
1438.736863	4105.799805
1439.262381	4092.199951
1439.787843	4090.800049
1440.313251	4099.799805
1440.838603	4100.0
1441.3639	4090.199951
1441.889143	4103.600098
1442.41433	4078.399902
1442.939462	4094.0
1443.464539	4072.399902
1443.989561	4075.399902
1444.514528	4059.800049
1445.03944	4083.0
1445.564297	4056.600098
1446.089099	4070.399902
1446.613846	4079.199951
1447.138537	4095.0
1447.663174	4039.399902
1448.187756	4060.399902
1448.712282	4049.600098
1449.236754	4057.0
1449.761171	4061.600098
1450.285532	4030.199951
1450.809839	4057.0
1451.33409	4056.800049
1451.858287	4066.0
1452.382428	4020.600098
1452.906515	4009.0
1453.430546	4060.600098
1453.954523	4037.199951
1454.478444	4067.399902
1455.002311	4014.600098
1455.526123	4017.800049
1456.049879	4023.0
1456.573581	4017.199951
1457.097227	4040.399902
1457.620819	4042.800049
1458.144356	4019.199951
1458.667837	4043.800049
1459.191264	4002.399902
1459.714636	4031.399902
1460.237952	4039.399902
1460.761214	4034.399902
1461.284421	4026.600098
1461.807573	4026.800049
1462.33067	4007.800049
1462.853712	3990.800049
1463.376699	4003.600098
1463.899632	4001.600098
1464.422509	3987.0
1464.945331	4002.600098
1465.468099	4011.199951
1465.990811	4000.399902
1466.513469	4012.399902
1467.036071	3997.199951
1467.558619	4001.399902
1468.081112	3981.199951
1468.60355	4004.199951
1469.125933	3997.600098
1469.648261	4006.399902
1470.170534	3949.600098
1470.692752	3958.199951
1471.214916	3984.600098
1471.737024	3973.199951
1472.259078	3953.800049
1472.781077	3988.199951
1473.303021	3984.0
1473.82491	3958.800049
1474.346744	3989.0
1474.868523	3978.399902
1475.390248	3980.600098
1475.911917	3968.199951
1476.433532	3970.0
1476.955092	3969.800049
1477.476597	3953.600098
1477.998047	3970.199951
1478.519442	3943.800049
1479.040783	3960.399902
1479.562068	3944.199951
1480.083299	3960.399902
1480.604475	3937.199951
1481.125596	3928.0
1481.646663	3935.0
1482.167674	3938.399902
1482.688631	3920.600098
1483.209533	3953.399902
1483.73038	3909.199951
1484.251172	3928.0
1484.771909	3928.399902
1485.292592	3943.399902
1485.81322	3951.199951
1486.333793	3905.199951
1486.854311	3941.800049
1487.374775	3893.800049
1487.895183	3907.600098
1488.415537	3896.399902
1488.935836	3908.399902
1489.456081	3893.399902
1489.97627	3921.0
1490.496405	3877.399902
1491.016485	3893.600098
1491.536511	3911.600098
1492.056481	3913.199951
1492.576397	3886.0
1493.096258	3879.800049
1493.616064	3870.800049
1494.135816	3891.800049
1494.655513	3903.0
1495.175155	3850.800049
1495.694742	3882.0
1496.214274	3851.399902
1496.733752	3906.0
1497.253175	3883.399902
1497.772544	3882.0
1498.291858	3892.0
1498.811116	3882.800049
1499.330321	3880.399902
1499.84947	3871.0
1500.368565	3893.0
1500.887605	3839.399902
1501.406591	3875.399902
1501.925521	3850.800049
1502.444397	3868.600098
1502.963219	3866.600098
1503.481985	3868.399902
1504.000697	3855.0
1504.519355	3850.399902
1505.037957	3868.0
1505.556505	3854.399902
1506.074999	3841.199951
1506.593437	3851.600098
1507.111821	3837.399902
1507.63015	3826.0
1508.148425	3840.199951
1508.666645	3834.0
1509.18481	3854.800049
1509.702921	3830.399902
1510.220977	3835.800049
1510.738979	3838.399902
1511.256925	3832.600098
1511.774817	3875.0
1512.292655	3842.0
1512.810438	3836.600098
1513.328166	3841.800049
1513.84584	3838.600098
1514.363459	3789.600098
1514.881023	3833.800049
1515.398533	3809.800049
1515.915988	3802.600098
1516.433389	3831.0
1516.950734	3815.600098
1517.468026	3807.199951
1517.985263	3822.600098
1518.502445	3808.399902
1519.019572	3828.199951
1519.536645	3793.600098
1520.053664	3804.600098
1520.570628	3792.0
1521.087537	3779.399902
1521.604392	3811.600098
1522.121192	3787.0
1522.637937	3805.600098
1523.154628	3835.600098
1523.671265	3807.399902
1524.187847	3799.600098
1524.704374	3801.0
1525.220847	3793.399902
1525.737265	3799.399902
1526.253629	3789.199951
1526.769938	3776.600098
1527.286192	3839.0
1527.802392	3813.600098
1528.318538	3825.399902
1528.834629	3798.600098
1529.350666	3803.199951
1529.866648	3797.399902
1530.382575	3785.399902
1530.898448	3796.399902
1531.414266	3812.800049
1531.93003	3800.0
1532.44574	3779.399902
1532.961395	3773.800049
1533.476995	3779.600098
1533.992541	3808.600098
1534.508033	3798.399902
1535.02347	3798.199951
1535.538852	3772.800049
1536.05418	3784.0
1536.569454	3786.0
1537.084673	3800.199951
1537.599837	3822.199951
1538.114947	3795.199951
1538.630003	3756.600098
1539.145004	3805.800049
1539.659951	3780.399902
1540.174843	3788.600098
1540.689681	3770.600098
1541.204465	3783.399902
1541.719194	3780.0
1542.233868	3763.600098
1542.748488	3761.0
1543.263054	3751.600098
1543.777565	3769.0
1544.292022	3770.0
1544.806424	3771.199951
1545.320772	3797.0
1545.835066	3765.199951
1546.349305	3799.399902
1546.863489	3739.600098
1547.37762	3816.399902
1547.891696	3751.0
1548.405717	3765.600098
1548.919684	3766.0
1549.433597	3788.0
1549.947455	3782.399902
1550.461259	3771.199951
1550.975009	3784.199951
1551.488704	3760.800049
1552.002345	3752.0
1552.515931	3769.399902
1553.029463	3758.800049
1553.542941	3752.199951
1554.056364	3772.800049
1554.569733	3764.600098
1555.083048	3770.800049
1555.596308	3775.800049
1556.109514	3764.800049
1556.622665	3759.600098
1557.135762	3726.199951
1557.648805	3778.399902
1558.161794	3721.800049
1558.674728	3769.800049
1559.187608	3769.600098
1559.700433	3752.0
1560.213205	3743.0
1560.725921	3750.600098
1561.238584	3766.800049
1561.751192	3736.600098
1562.263746	3732.800049
1562.776246	3729.600098
1563.288691	3755.600098
1563.801082	3766.600098
1564.313419	3756.600098
1564.825701	3762.600098
1565.337929	3735.399902
1565.850103	3726.199951
1566.362223	3723.399902
1566.874288	3764.399902
1567.386299	3729.199951
1567.898256	3747.0
1568.410158	3718.199951
1568.922007	3750.399902
1569.4338	3723.199951
1569.94554	3737.800049
1570.457226	3717.800049
1570.968857	3736.0
1571.480434	3753.800049
1571.991956	3760.600098
1572.503425	3731.399902
1573.014839	3718.600098
1573.526199	3757.199951
1574.037505	3713.800049
1574.548756	3700.600098
1575.059953	3725.0
1575.571096	3753.199951
1576.082185	3692.600098
1576.59322	3737.600098
1577.1042	3732.0
1577.615126	3705.800049
1578.125998	3717.600098
1578.636816	3690.0
1579.14758	3723.800049
1579.658289	3704.600098
1580.168944	3712.800049
1580.679545	3675.199951
1581.190092	3673.0
1581.700585	3670.199951
1582.211023	3688.199951
1582.721407	3711.600098
1583.231737	3691.0
1583.742013	3698.600098
1584.252235	3665.199951
1584.762403	3689.199951
1585.272516	3699.0
1585.782575	3700.600098
1586.292581	3676.399902
1586.802532	3704.600098
1587.822271	3712.0
1588.33206	3686.199951
1588.841794	3700.399902
1589.351474	3698.399902
1589.8611	3694.800049
1590.370672	3705.800049
1590.88019	3669.399902
1591.389654	3681.199951
1591.899064	3706.399902
