1042.452273	3852.199951
1043.018714	3856.800049
1043.585098	3816.199951
1044.151424	3876.0
1044.717692	3836.800049
1045.283903	3851.800049
1045.850056	3833.199951
1046.416151	3850.199951
1046.982188	3808.399902
1047.548167	3804.800049
1048.114089	3842.399902
1048.679953	3836.600098
1049.24576	3822.800049
1049.811509	3830.399902
1050.3772	3830.0
1050.942833	3842.800049
1051.508408	3805.399902
1052.073926	3794.399902
1052.639387	3821.399902
1053.204789	3798.0
1053.770134	3805.600098
1054.335421	3795.800049
1054.900651	3789.0
1055.465823	3803.399902
1056.030937	3813.0
1056.595993	3814.199951
1057.160992	3795.0
1057.725934	3801.800049
1058.290817	3793.600098
1058.855643	3787.199951
1059.420411	3795.0
1059.985122	3770.800049
1060.549775	3812.0
1061.114371	3764.800049
1061.678908	3795.399902
1062.243389	3791.0
1062.807811	3793.399902
1063.372176	3774.600098
1063.936483	3775.800049
1064.500733	3762.0
1065.064925	3789.399902
1065.62906	3773.0
1066.193137	3803.0
1066.757156	3770.800049
1067.321118	3754.0
1067.885022	3752.0
1068.448869	3758.199951
1069.012658	3768.199951
1069.57639	3750.199951
1070.140063	3739.0
1070.70368	3765.199951
1071.267239	3739.0
1071.83074	3757.199951
1072.394184	3725.0
1072.95757	3723.600098
1073.520899	3717.800049
1074.08417	3783.800049
1074.647383	3751.600098
1075.21054	3730.800049
1075.773638	3706.399902
1076.336679	3729.0
1076.899663	3711.399902
1077.462589	3730.199951
1078.025457	3718.199951
1078.588268	3728.399902
1079.151022	3729.199951
1079.713718	3706.0
1080.276356	3697.800049
1080.838937	3707.0
1081.401461	3689.800049
1081.963927	3721.600098
1082.526336	3679.800049
1083.088687	3697.800049
1083.650981	3671.0
1084.213217	3698.0
1084.775396	3675.0
1085.337517	3706.600098
1085.899581	3658.199951
1086.461587	3709.199951
1087.023536	3657.600098
1087.585428	3693.0
1088.147262	3665.0
1088.709039	3690.800049
1089.270758	3650.199951
1089.83242	3663.399902
1090.394024	3646.399902
1090.955571	3648.399902
1091.517061	3642.0
1092.078493	3684.199951
1092.639868	3612.600098
1093.201185	3637.199951
1093.762445	3609.600098
1094.323648	3673.399902
1094.884793	3612.199951
1095.445881	3629.399902
1096.006911	3612.0
1096.567884	3667.199951
1097.1288	3612.800049
1097.689659	3643.800049
1098.25046	3626.399902
1098.811203	3635.199951
1099.37189	3606.199951
1099.932518	3609.199951
1100.49309	3585.199951
1101.053604	3591.0
1101.614061	3561.0
1102.174461	3589.800049
1102.734803	3577.399902
1103.295088	3595.399902
1103.855316	3574.399902
1104.415486	3597.0
1104.975599	3570.800049
1105.535655	3605.199951
1106.095653	3530.399902
1106.655594	3544.199951
1107.215478	3552.199951
1107.775305	3539.800049
1108.335074	3552.800049
1108.894786	3561.399902
1109.45444	3538.0
1110.014038	3539.0
1110.573578	3545.399902
1111.133061	3576.800049
1111.692486	3517.800049
1112.251854	3555.0
1112.811165	3526.199951
1113.370419	3552.800049
1113.929616	3546.600098
1114.488755	3553.399902
1115.047837	3512.800049
1115.606862	3525.199951
1116.16583	3495.800049
1116.72474	3523.800049
1117.283593	3487.199951
1117.842389	3520.600098
1118.401128	3488.800049
1118.959809	3524.800049
1119.518433	3498.600098
1120.077	3518.399902
1120.63551	3489.600098
1121.193963	3509.199951
1121.752358	3494.0
1122.310697	3501.399902
1122.868978	3526.399902
1123.427202	3491.800049
1123.985368	3509.399902
1124.543478	3529.399902
1125.10153	3483.0
1125.659526	3497.0
1126.217464	3485.800049
1126.775345	3501.800049
1127.333168	3517.199951
1127.890935	3512.800049
1128.448644	3516.399902
1129.006297	3463.800049
1129.563892	3489.199951
1130.12143	3473.800049
1130.678911	3498.399902
1131.236335	3492.199951
1131.793701	3512.600098
1132.351011	3474.800049
1132.908263	3470.0
1133.465458	3471.399902
1134.022597	3457.399902
1134.579678	3476.0
1135.136702	3471.600098
1135.693669	3519.199951
1136.250578	3477.800049
1136.807431	3458.800049
1137.364227	3494.800049
1137.920965	3485.800049
1138.477647	3494.399902
1139.034271	3501.800049
1139.590839	3477.0
1140.147349	3468.800049
1140.703802	3450.0
1141.260198	3480.199951
1141.816537	3497.600098
1142.37282	3476.0
1142.929045	3498.800049
1143.485213	3453.399902
1144.041323	3512.0
1144.597377	3459.800049
1145.153374	3472.800049
1145.709314	3470.800049
1146.265197	3484.800049
1146.821023	3491.0
1147.376792	3479.800049
1147.932503	3479.800049
1148.488158	3486.800049
1149.043756	3445.199951
1149.599297	3491.800049
1150.154781	3502.800049
1150.710207	3595.800049
1151.265577	3576.199951
1151.82089	3524.399902
1152.376146	3479.600098
1152.931345	3476.0
1153.486487	3463.600098
1154.041572	3505.199951
1154.5966	3450.199951
1155.151571	3479.199951
1155.706485	3432.600098
1156.261342	3468.199951
1156.816142	3466.399902
1157.370885	3510.399902
1157.925572	3467.199951
1158.480201	3477.0
1159.034774	3445.0
1159.589289	3470.399902
1160.143748	3426.399902
1160.698149	3452.800049
1161.252494	3451.199951
1161.806782	3460.800049
1162.361013	3430.800049
1162.915187	3462.600098
1163.469304	3451.800049
1164.023364	3454.800049
1164.577368	3441.800049
1165.131314	3438.600098
1165.685204	3442.0
1166.239036	3449.199951
1166.792812	3444.399902
1167.346531	3452.399902
1167.900193	3447.600098
1168.453798	3448.399902
1169.007347	3415.399902
1169.560838	3440.199951
1170.114273	3412.199951
1170.66765	3410.399902
1171.220971	3433.800049
1171.774235	3453.600098
1172.327443	3413.600098
1172.880593	3435.399902
1173.433687	3452.199951
1173.986723	3434.800049
1174.539703	3431.800049
1175.092626	3441.800049
1175.645493	3420.0
1176.198302	3406.399902
1176.751055	3411.399902
1177.303751	3429.0
1177.85639	3411.199951
1178.408972	3417.600098
1178.961498	3443.399902
1179.513966	3409.199951
1180.066378	3429.199951
1180.618733	3398.399902
1181.171032	3367.399902
1181.723273	3412.399902
1182.275458	3406.199951
1182.827586	3378.600098
1183.379657	3420.800049
1183.931672	3408.0
1184.48363	3403.600098
1185.035531	3393.0
1185.587375	3426.0
1186.139162	3383.399902
1186.690893	3392.199951
1187.242567	3408.399902
1187.794184	3383.199951
1188.345745	3387.800049
1188.897249	3409.399902
1189.448696	3368.800049
1190.000086	3369.800049
1190.55142	3351.399902
1191.102697	3401.399902
1191.653918	3357.0
1192.205081	3409.199951
1192.756188	3373.600098
1193.307238	3400.600098
1193.858232	3341.800049
1194.409169	3386.800049
1194.960049	3339.199951
1195.510872	3360.199951
1196.061639	3359.199951
1196.612349	3394.600098
1197.163003	3390.199951
1197.713599	3385.199951
1198.264139	3325.800049
1198.814623	3336.800049
1199.36505	3359.600098
1199.91542	3367.800049
1200.465734	3360.199951
1201.01599	3343.399902
1201.566191	3351.600098
1202.116334	3325.399902
1202.666421	3352.0
1203.216452	3350.199951
1203.766425	3343.399902
1204.316343	3339.0
1204.866203	3349.800049
1205.416007	3336.600098
1205.965754	3314.199951
1206.515445	3328.399902
1207.065079	3346.399902
1207.614657	3339.399902
1208.164177	3336.399902
1208.713642	3329.399902
1209.26305	3325.199951
1209.812401	3337.800049
1210.361695	3327.399902
1210.910933	3341.0
1211.460115	3351.800049
1212.00924	3325.800049
1212.558308	3327.800049
1213.10732	3334.800049
1213.656275	3321.399902
1214.205174	3316.800049
1214.754016	3322.600098
1215.302801	3328.399902
1215.85153	3325.600098
1216.400203	3317.0
1216.948819	3297.600098
1217.497378	3315.399902
1218.045881	3309.800049
1218.594327	3329.399902
1219.142717	3279.399902
1219.691051	3324.0
1220.239327	3276.399902
1220.787548	3280.600098
1221.335712	3322.399902
1221.883819	3282.199951
1222.43187	3288.600098
1222.979864	3294.600098
1223.527802	3312.199951
1224.075683	3306.199951
1224.623508	3296.0
1225.171277	3291.199951
1225.718989	3317.600098
1226.266644	3281.399902
1226.814243	3294.800049
1227.361786	3276.800049
1227.909272	3298.0
1228.456702	3306.800049
1229.004075	3271.800049
1229.551392	3273.199951
1230.098652	3254.600098
1230.645856	3289.800049
1231.193003	3277.0
1231.740094	3269.399902
1232.287129	3274.399902
1232.834107	3269.199951
1233.381029	3296.800049
1233.927894	3253.199951
1234.474703	3293.0
1235.021455	3257.199951
1235.568151	3272.800049
1236.114791	3252.600098
1236.661374	3265.800049
1237.207901	3265.800049
1237.754372	3272.399902
1238.300786	3240.399902
1238.847144	3262.0
1239.393445	3261.399902
1239.93969	3262.800049
1240.485879	3245.600098
1241.032011	3250.800049
1241.578087	3221.600098
1242.124106	3260.800049
1242.67007	3259.800049
1243.215976	3252.600098
1243.761827	3240.399902
1244.307621	3245.800049
1244.853359	3215.0
1245.39904	3239.800049
1245.944665	3266.800049
1246.490234	3224.600098
1247.035746	3274.0
1247.581203	3250.0
1248.126602	3241.399902
1248.671946	3225.199951
1249.217233	3252.399902
1249.762464	3221.0
1250.307638	3237.0
1250.852757	3226.199951
1251.397819	3237.399902
1251.942824	3225.0
1252.487774	3251.600098
1253.032667	3223.800049
1253.577503	3228.199951
1254.122284	3243.199951
1254.667008	3220.800049
1255.211676	3191.199951
1255.756288	3209.199951
1256.300843	3232.600098
1256.845342	3181.399902
1257.389785	3215.399902
1257.934172	3202.399902
1258.478502	3215.399902
1259.022776	3202.399902
1259.566994	3187.800049
1260.111156	3206.600098
1260.655261	3184.199951
1261.199311	3218.399902
1261.743304	3236.800049
1262.28724	3198.600098
1262.831121	3218.600098
1263.374945	3224.0
1263.918713	3216.800049
1264.462425	3242.800049
1265.006081	3252.800049
1265.54968	3266.399902
1266.093223	3250.600098
1266.636711	3209.800049
1267.180141	3189.399902
1267.723516	3171.600098
1268.266835	3200.199951
1268.810097	3193.800049
1269.353303	3192.399902
1269.896453	3188.199951
1270.439547	3171.800049
1270.982584	3192.800049
1271.525566	3178.0
1272.068491	3193.399902
1272.61136	3184.0
1273.154173	3187.399902
1273.69693	3194.399902
1274.239631	3194.600098
1274.782275	3173.0
1275.324864	3164.600098
1275.867396	3175.600098
1276.409872	3160.600098
1276.952292	3175.600098
1277.494656	3187.800049
1278.036964	3172.199951
1278.579215	3167.0
1279.121411	3158.399902
1279.66355	3163.600098
1280.205634	3164.800049
1280.747661	3166.600098
1281.289632	3156.800049
1281.831547	3183.199951
1282.373406	3155.600098
1282.915209	3194.199951
1283.456955	3195.399902
1283.998646	3223.600098
1284.540281	3324.800049
1285.081859	3655.199951
1285.623381	4104.799805
1286.164848	3629.800049
1286.706258	3255.800049
1287.247612	3195.800049
1287.788911	3133.600098
1288.330153	3157.600098
1288.871339	3162.800049
1289.412469	3146.199951
1289.953543	3147.800049
1290.494561	3166.600098
1291.035523	3147.199951
1291.576428	3136.600098
1292.117278	3139.800049
1292.658072	3103.399902
1293.19881	3138.800049
1293.739492	3123.0
1294.280118	3122.0
1294.820687	3122.0
1295.361201	3134.399902
1295.901659	3126.800049
1296.442061	3122.800049
1296.982406	3135.399902
1297.522696	3141.600098
1298.06293	3103.199951
1298.603108	3143.199951
1299.143229	3092.600098
1299.683295	3129.600098
1300.223305	3089.399902
1300.763259	3121.0
1301.303157	3076.800049
1301.842999	3088.199951
1302.382785	3099.0
1302.922515	3116.0
1303.462189	3116.399902
1304.001807	3107.600098
1304.541369	3113.0
1305.080875	3096.600098
1305.620326	3115.399902
1306.15972	3094.399902
1306.699058	3116.399902
1307.238341	3073.800049
1307.777567	3110.600098
1308.316738	3083.800049
1308.855853	3095.0
1309.394912	3070.199951
1309.933915	3106.399902
1310.472862	3075.0
1311.011753	3111.399902
1311.550588	3072.0
1312.089367	3102.0
1312.62809	3088.199951
1313.166758	3089.199951
1313.70537	3080.199951
1314.243925	3088.399902
1314.782425	3080.0
1315.320869	3057.600098
1315.859257	3075.399902
1316.397589	3076.399902
1316.935866	3072.199951
1317.474086	3049.800049
1318.012251	3056.600098
1318.55036	3062.0
1319.088413	3082.0
1319.62641	3048.199951
1320.164351	3074.800049
1320.702236	3064.399902
1321.240066	3059.0
1321.777839	3049.800049
1322.315557	3080.199951
1322.853219	3040.399902
1323.390826	3069.800049
1323.928376	3065.199951
1324.465871	3057.199951
1325.003309	3036.0
1325.540692	3046.199951
1326.07802	3054.600098
1326.615291	3057.399902
1327.152506	3069.399902
1327.689666	3064.0
1328.22677	3065.399902
1328.763818	3044.399902
1329.300811	3055.600098
1329.837747	3037.199951
1330.374628	3057.0
1330.911453	3041.600098
1331.448222	3041.800049
1331.984936	3023.800049
1332.521594	3017.800049
1333.058196	3025.600098
1333.594742	3019.600098
1334.131232	3028.600098
1334.667667	3047.199951
1335.204046	3033.800049
1335.740369	3043.600098
1336.276637	3037.199951
1336.812848	3004.0
1337.349004	3025.800049
1337.885105	3024.0
1338.421149	3037.800049
1338.957138	3026.800049
1339.493071	3015.600098
1340.028949	3018.0
1340.56477	3010.800049
1341.100536	3019.0
1341.636246	3009.600098
1342.171901	3009.0
1342.7075	3031.399902
1343.243043	3033.600098
1343.77853	3016.600098
1344.313962	3006.0
1344.849338	3022.399902
1345.384659	3002.199951
1345.919923	3009.800049
1346.455133	2970.0
1346.990286	3008.199951
1347.525384	3023.800049
1348.060426	2978.600098
1348.595412	3014.199951
1349.130343	3006.199951
1349.665218	3005.600098
1350.200037	2998.600098
1350.734801	3006.600098
1351.269509	2999.800049
1351.804162	3020.399902
1352.338758	3022.600098
1352.8733	2997.0
1353.407785	2984.600098
1353.942215	2979.199951
1354.476589	2995.800049
1355.010908	3006.399902
1355.545171	2970.800049
1356.079379	2996.399902
1356.61353	2993.399902
1357.147627	2971.600098
1357.681667	2955.800049
1358.215652	2979.199951
1358.749582	2987.399902
1359.283456	2988.399902
1359.817274	2979.600098
1360.351037	2966.199951
1360.884744	2981.600098
1361.418395	2979.0
1361.951991	2976.399902
1362.485531	2988.800049
1363.019016	2972.600098
1363.552445	2990.600098
1364.085819	2976.600098
1364.619137	2959.800049
1365.1524	2982.399902
1365.685607	2957.199951
1366.218758	2974.399902
1366.751854	2980.199951
1367.284894	2958.0
1367.817879	2979.399902
1368.350808	2969.399902
1368.883682	2966.600098
1369.4165	2953.600098
1369.949263	2982.600098
1370.48197	2972.199951
1371.014622	2991.600098
1371.547218	2945.800049
1372.079758	2944.399902
1372.612244	2925.800049
1373.144673	2967.199951
1373.677047	2938.199951
1374.209366	2942.199951
1374.741629	2944.399902
1375.273836	2952.600098
1375.805989	2947.399902
1376.338085	2952.399902
1376.870126	2957.199951
1377.402112	2958.800049
1377.934042	2948.600098
1378.465917	2929.600098
1378.997736	2932.199951
1379.5295	2929.199951
1380.061208	2948.0
1380.592861	2940.399902
1381.124459	2942.800049
1381.656	2930.800049
1382.187487	2936.399902
1382.718918	2933.0
1383.250294	2944.399902
1383.781614	2925.600098
1384.312879	2934.800049
1384.844088	2907.0
1385.375242	2933.0
1385.90634	2951.600098
1386.437383	2969.800049
1386.968371	2985.399902
1387.499303	3016.399902
1388.03018	3225.199951
1388.561001	4138.200195
1389.091767	4448.0
1389.622478	3327.0
1390.153133	3021.600098
1390.683733	2933.0
1391.214277	2934.800049
1391.744766	2926.199951
1392.2752	2929.600098
1392.805578	2921.600098
1393.335901	2929.0
1393.866168	2942.600098
1394.396381	2923.399902
1394.926537	2924.800049
1395.456639	2894.399902
1395.986685	2895.399902
1396.516675	2902.199951
1397.046611	2932.600098
1397.576491	2890.0
1398.106315	2912.199951
1398.636084	2904.399902
1399.165798	2898.399902
1399.695457	2889.399902
1400.22506	2907.199951
1400.754608	2874.399902
1401.284101	2903.0
1401.813538	2908.0
1402.34292	2917.600098
1402.872247	2889.399902
1403.401518	2882.600098
1403.930734	2905.0
1404.459895	2875.399902
1404.989	2914.800049
1405.51805	2891.800049
1406.047045	2926.399902
1406.575984	2875.399902
1407.104869	2886.399902
1407.633697	2892.800049
1408.162471	2942.800049
1408.691189	2880.800049
1409.219852	2920.800049
1409.74846	2956.800049
1410.277013	3015.199951
1410.80551	2956.0
1411.333952	2876.800049
1411.862339	2907.0
1412.39067	2899.600098
1412.918946	2890.399902
1413.447167	2874.800049
1413.975333	2892.600098
1414.503444	2911.0
1415.031499	2903.199951
1415.559499	2884.199951
1416.087444	2902.0
1416.615333	2851.199951
1417.143167	2896.800049
1417.670947	2881.199951
1418.19867	2888.800049
1418.726339	2885.399902
1419.253952	2884.800049
1419.781511	2868.399902
1420.309014	2878.600098
1420.836461	2860.399902
1421.363854	2856.600098
1421.891191	2880.399902
1422.418474	2868.199951
1422.945701	2869.600098
1423.472872	2848.0
1423.999989	2876.199951
1424.52705	2874.199951
1425.054057	2875.600098
1425.581008	2871.800049
1426.107904	2874.399902
1426.634745	2882.0
1427.16153	2871.800049
1427.688261	2880.600098
1428.214936	2875.399902
1428.741556	2865.0
1429.268121	2867.199951
1429.794631	2875.800049
1430.321085	2887.800049
1430.847485	2877.600098
1431.373829	2874.399902
1431.900118	2856.0
1432.426353	2878.0
1432.952532	2873.0
1433.478655	2851.600098
1434.004724	2846.399902
1434.530738	2842.800049
1435.056696	2878.399902
1435.5826	2866.800049
1436.108448	2869.399902
1436.634241	2845.399902
1437.159979	2859.399902
1437.685662	2848.399902
1438.21129	2875.800049
1438.736863	2882.199951
1439.262381	2822.0
1439.787843	2834.0
1440.313251	2848.600098
1440.838603	2851.0
1441.3639	2844.399902
1441.889143	2833.399902
1442.41433	2841.399902
1442.939462	2819.600098
1443.464539	2826.0
1443.989561	2845.399902
1444.514528	2823.800049
1445.03944	2845.199951
1445.564297	2828.800049
1446.089099	2821.199951
1446.613846	2831.800049
1447.138537	2826.0
1447.663174	2806.0
1448.187756	2819.800049
1448.712282	2834.600098
1449.236754	2833.600098
1449.761171	2835.600098
1450.285532	2818.0
1450.809839	2828.199951
1451.33409	2826.399902
1451.858287	2815.199951
1452.382428	2813.600098
1452.906515	2829.800049
1453.430546	2802.600098
1453.954523	2822.399902
1454.478444	2814.800049
1455.002311	2819.399902
1455.526123	2845.800049
1456.049879	2799.800049
1456.573581	2829.800049
1457.097227	2821.399902
1457.620819	2837.0
1458.144356	2828.800049
1458.667837	2807.199951
1459.191264	2801.199951
1459.714636	2807.0
1460.237952	2803.800049
1460.761214	2811.800049
1461.284421	2801.199951
1461.807573	2790.800049
1462.33067	2813.0
1462.853712	2816.800049
1463.376699	2802.800049
1463.899632	2797.600098
1464.422509	2811.0
1464.945331	2808.399902
1465.468099	2820.0
1465.990811	2802.600098
1466.513469	2814.0
1467.036071	2800.199951
1467.558619	2800.600098
1468.081112	2767.399902
1468.60355	2804.800049
1469.125933	2793.199951
1469.648261	2781.399902
1470.170534	2783.0
1470.692752	2771.399902
1471.214916	2782.199951
1471.737024	2765.600098
1472.259078	2798.399902
1472.781077	2800.399902
1473.303021	2798.600098
1473.82491	2779.600098
1474.346744	2811.800049
1474.868523	2805.199951
1475.390248	2785.800049
1475.911917	2769.600098
1476.433532	2769.800049
1476.955092	2780.0
1477.476597	2769.199951
1477.998047	2773.399902
1478.519442	2788.600098
1479.040783	2759.199951
1479.562068	2756.399902
1480.083299	2771.600098
1480.604475	2755.399902
1481.125596	2782.600098
1481.646663	2780.199951
1482.167674	2761.800049
1482.688631	2739.399902
1483.209533	2772.399902
1483.73038	2774.399902
1484.251172	2748.199951
1484.771909	2753.399902
1485.292592	2762.600098
1485.81322	2766.399902
1486.333793	2749.600098
1486.854311	2794.199951
1487.374775	2749.199951
1487.895183	2764.800049
1488.415537	2751.399902
1488.935836	2759.800049
1489.456081	2741.399902
1489.97627	2751.600098
1490.496405	2717.600098
1491.016485	2765.800049
1491.536511	2759.800049
1492.056481	2735.0
1492.576397	2749.399902
1493.096258	2756.199951
1493.616064	2747.0
1494.135816	2745.800049
1494.655513	2747.600098
1495.175155	2747.800049
1495.694742	2726.600098
1496.214274	2724.600098
1496.733752	2722.399902
1497.253175	2732.600098
1497.772544	2735.199951
1498.291858	2756.199951
1498.811116	2737.399902
1499.330321	2749.399902
1499.84947	2741.600098
1500.368565	2757.399902
1500.887605	2741.399902
1501.406591	2756.800049
1501.925521	2729.0
1502.444397	2731.800049
1502.963219	2747.0
1503.481985	2741.600098
1504.000697	2752.800049
1504.519355	2720.0
1505.037957	2722.0
1505.556505	2722.800049
1506.074999	2744.399902
1506.593437	2709.800049
1507.111821	2708.399902
1507.63015	2737.399902
1508.148425	2722.0
1508.666645	2704.600098
1509.18481	2701.800049
1509.702921	2702.800049
1510.220977	2737.600098
1510.738979	2720.800049
1511.256925	2691.600098
1511.774817	2710.0
1512.292655	2721.399902
1512.810438	2726.800049
1513.328166	2708.199951
1513.84584	2720.0
1514.363459	2719.800049
1514.881023	2722.800049
1515.398533	2722.399902
1515.915988	2740.800049
1516.433389	2705.199951
1516.950734	2704.600098
1517.468026	2697.0
1517.985263	2733.199951
1518.502445	2706.0
1519.019572	2683.199951
1519.536645	2724.600098
1520.053664	2704.199951
1520.570628	2712.800049
1521.087537	2699.199951
1521.604392	2719.800049
1522.121192	2691.800049
1522.637937	2724.600098
1523.154628	2718.0
1523.671265	2708.0
1524.187847	2705.600098
1524.704374	2714.199951
1525.220847	2694.800049
1525.737265	2709.800049
1526.253629	2712.0
1526.769938	2717.600098
1527.286192	2700.600098
1527.802392	2723.399902
1528.318538	2684.800049
1528.834629	2695.800049
1529.350666	2710.600098
1529.866648	2700.600098
1530.382575	2735.399902
1530.898448	2716.800049
1531.414266	2714.199951
1531.93003	2686.0
1532.44574	2716.399902
1532.961395	2690.800049
1533.476995	2696.600098
1533.992541	2722.0
1534.508033	2702.199951
1535.02347	2711.800049
1535.538852	2721.0
1536.05418	2742.399902
1537.084673	2692.199951
1537.599837	2704.399902
1538.114947	2711.199951
1538.630003	2712.800049
1539.145004	2701.800049
1539.659951	2700.600098
1540.174843	2709.0
1540.689681	2698.399902
1541.204465	2709.199951
1541.719194	2715.0
1542.233868	2703.199951
1542.748488	2702.800049
1543.263054	2693.199951
1543.777565	2698.600098
1544.292022	2686.800049
1544.806424	2688.800049
1545.320772	2699.600098
1545.835066	2688.600098
1546.349305	2699.399902
1546.863489	2702.600098
1547.37762	2728.0
1547.891696	2695.600098
1548.405717	2691.0
1548.919684	2683.399902
1549.433597	2708.800049
1549.947455	2715.399902
1550.461259	2692.0
1550.975009	2695.0
1551.488704	2706.199951
1552.002345	2705.800049
1552.515931	2684.399902
1553.029463	2703.399902
1553.542941	2696.199951
1554.056364	2713.199951
1554.569733	2703.399902
1555.083048	2713.600098
1555.596308	2683.399902
1556.109514	2695.800049
1556.622665	2684.800049
1557.135762	2681.0
1557.648805	2689.199951
1558.161794	2706.800049
1558.674728	2714.399902
1559.187608	2704.399902
1559.700433	2681.0
1560.213205	2683.399902
1560.725921	2696.0
1561.238584	2694.199951
1561.751192	2696.399902
1562.263746	2685.0
1562.776246	2675.600098
1563.288691	2677.0
1563.801082	2691.199951
1564.313419	2705.199951
1564.825701	2683.199951
1565.337929	2688.0
1565.850103	2710.800049
1566.362223	2680.600098
1566.874288	2677.199951
1567.386299	2692.600098
1567.898256	2679.800049
1568.410158	2711.0
1568.922007	2665.600098
1569.4338	2697.0
1569.94554	2686.600098
1570.457226	2677.800049
1570.968857	2677.399902
1571.480434	2694.0
1571.991956	2692.399902
1572.503425	2722.800049
1573.014839	2702.600098
1573.526199	2722.199951
1574.037505	2670.0
1574.548756	2706.0
1575.059953	2691.600098
1575.571096	2679.800049
1576.082185	2681.800049
1576.59322	2707.600098
1577.1042	2683.600098
1577.615126	2705.800049
1578.125998	2711.800049
1578.636816	2664.0
1579.14758	2684.800049
1579.658289	2681.199951
1580.168944	2696.800049
1580.679545	2643.800049
1581.190092	2659.399902
1581.700585	2686.199951
1582.211023	2707.399902
1582.721407	2653.0
1583.231737	2672.199951
1583.742013	2677.800049
1584.252235	2668.399902
1584.762403	2695.600098
1585.272516	2659.199951
1585.782575	2668.399902
1586.292581	2658.199951
1586.802532	2679.800049
1587.312428	2707.800049
1587.822271	2684.600098
1588.33206	2695.800049
1588.841794	2672.600098
1589.351474	2683.399902
1589.8611	2653.600098
1590.370672	2675.800049
1590.88019	2656.0
1591.389654	2684.199951
1591.899064	2670.199951
1592.408419	2670.800049
