 1.042452273E+03	 5.549399902E+03
 1.043018714E+03	 5.563399902E+03
 1.043585098E+03	 5.557600098E+03
 1.044151424E+03	 5.523200195E+03
 1.044717692E+03	 5.511399902E+03
 1.045283903E+03	 5.538200195E+03
 1.045850056E+03	 5.522200195E+03
 1.046416151E+03	 5.540799805E+03
 1.046982188E+03	 5.559600098E+03
 1.047548167E+03	 5.508399902E+03
 1.048114089E+03	 5.541000000E+03
 1.048679953E+03	 5.525399902E+03
 1.049245760E+03	 5.536000000E+03
 1.049811509E+03	 5.531600098E+03
 1.050377200E+03	 5.532000000E+03
 1.050942833E+03	 5.530000000E+03
 1.051508408E+03	 5.514399902E+03
 1.052073926E+03	 5.497399902E+03
 1.052639387E+03	 5.500200195E+03
 1.053204789E+03	 5.479799805E+03
 1.053770134E+03	 5.488200195E+03
 1.054335421E+03	 5.518399902E+03
 1.054900651E+03	 5.493799805E+03
 1.055465823E+03	 5.459000000E+03
 1.056030937E+03	 5.493000000E+03
 1.056595993E+03	 5.518399902E+03
 1.057160992E+03	 5.486200195E+03
 1.057725934E+03	 5.470399902E+03
 1.058290817E+03	 5.538799805E+03
 1.058855643E+03	 5.459200195E+03
 1.059420411E+03	 5.484799805E+03
 1.059985122E+03	 5.454200195E+03
 1.060549775E+03	 5.459799805E+03
 1.061114371E+03	 5.504399902E+03
 1.061678908E+03	 5.494000000E+03
 1.062243389E+03	 5.453799805E+03
 1.062807811E+03	 5.443799805E+03
 1.063372176E+03	 5.470600098E+03
 1.063936483E+03	 5.505600098E+03
 1.064500733E+03	 5.443600098E+03
 1.065064925E+03	 5.411200195E+03
 1.065629060E+03	 5.431399902E+03
 1.066193137E+03	 5.426799805E+03
 1.066757156E+03	 5.453600098E+03
 1.067321118E+03	 5.458200195E+03
 1.067885022E+03	 5.410200195E+03
 1.068448869E+03	 5.427799805E+03
 1.069012658E+03	 5.408200195E+03
 1.069576390E+03	 5.402000000E+03
 1.070140063E+03	 5.421200195E+03
 1.070703680E+03	 5.418399902E+03
 1.071267239E+03	 5.390399902E+03
 1.071830740E+03	 5.400799805E+03
 1.072394184E+03	 5.402000000E+03
 1.072957570E+03	 5.416200195E+03
 1.073520899E+03	 5.364799805E+03
 1.074084170E+03	 5.407000000E+03
 1.074647383E+03	 5.359799805E+03
 1.075210540E+03	 5.391399902E+03
 1.075773638E+03	 5.328399902E+03
 1.076336679E+03	 5.377399902E+03
 1.076899663E+03	 5.358600098E+03
 1.077462589E+03	 5.390600098E+03
 1.078025457E+03	 5.320000000E+03
 1.078588268E+03	 5.391000000E+03
 1.079151022E+03	 5.311600098E+03
 1.079713718E+03	 5.377000000E+03
 1.080276356E+03	 5.334399902E+03
 1.080838937E+03	 5.354399902E+03
 1.081401461E+03	 5.278399902E+03
 1.081963927E+03	 5.351000000E+03
 1.082526336E+03	 5.321600098E+03
 1.083088687E+03	 5.340799805E+03
 1.083650981E+03	 5.281799805E+03
 1.084213217E+03	 5.300600098E+03
 1.084775396E+03	 5.294200195E+03
 1.085337517E+03	 5.292799805E+03
 1.085899581E+03	 5.296600098E+03
 1.086461587E+03	 5.299399902E+03
 1.087023536E+03	 5.259000000E+03
 1.087585428E+03	 5.294600098E+03
 1.088147262E+03	 5.232600098E+03
 1.088709039E+03	 5.305799805E+03
 1.089270758E+03	 5.232200195E+03
 1.089832420E+03	 5.278799805E+03
 1.090394024E+03	 5.195000000E+03
 1.090955571E+03	 5.271000000E+03
 1.091517061E+03	 5.194000000E+03
 1.092078493E+03	 5.261000000E+03
 1.092639868E+03	 5.212600098E+03
 1.093201185E+03	 5.242600098E+03
 1.093762445E+03	 5.239399902E+03
 1.094323648E+03	 5.216600098E+03
 1.094884793E+03	 5.173399902E+03
 1.095445881E+03	 5.221600098E+03
 1.096006911E+03	 5.185799805E+03
 1.096567884E+03	 5.202200195E+03
 1.097128800E+03	 5.159600098E+03
 1.097689659E+03	 5.186000000E+03
 1.098250460E+03	 5.171600098E+03
 1.098811203E+03	 5.235799805E+03
 1.099371890E+03	 5.177000000E+03
 1.099932518E+03	 5.212200195E+03
 1.100493090E+03	 5.145000000E+03
 1.101053604E+03	 5.209399902E+03
 1.101614061E+03	 5.103200195E+03
 1.102174461E+03	 5.191000000E+03
 1.102734803E+03	 5.070600098E+03
 1.103295088E+03	 5.131399902E+03
 1.103855316E+03	 5.142200195E+03
 1.104415486E+03	 5.154000000E+03
 1.104975599E+03	 5.091600098E+03
 1.105535655E+03	 5.109399902E+03
 1.106095653E+03	 5.075000000E+03
 1.106655594E+03	 5.104600098E+03
 1.107215478E+03	 5.065200195E+03
 1.107775305E+03	 5.129000000E+03
 1.108335074E+03	 5.051799805E+03
 1.108894786E+03	 5.098399902E+03
 1.109454440E+03	 5.042000000E+03
 1.110014038E+03	 5.117399902E+03
 1.110573578E+03	 5.027600098E+03
 1.111133061E+03	 5.095000000E+03
 1.111692486E+03	 5.060399902E+03
 1.112251854E+03	 5.083799805E+03
 1.112811165E+03	 5.041000000E+03
 1.113370419E+03	 5.085200195E+03
 1.113929616E+03	 5.038200195E+03
 1.114488755E+03	 5.068200195E+03
 1.115047837E+03	 5.044399902E+03
 1.115606862E+03	 5.056399902E+03
 1.116165830E+03	 5.047799805E+03
 1.116724740E+03	 5.023200195E+03
 1.117283593E+03	 5.011200195E+03
 1.117842389E+03	 5.011399902E+03
 1.118401128E+03	 5.005399902E+03
 1.118959809E+03	 5.019200195E+03
 1.119518433E+03	 5.013200195E+03
 1.120077000E+03	 4.998799805E+03
 1.120635510E+03	 5.021600098E+03
 1.121193963E+03	 5.027600098E+03
 1.121752358E+03	 4.996600098E+03
 1.122310697E+03	 5.060000000E+03
 1.122868978E+03	 5.010600098E+03
 1.123427202E+03	 5.059399902E+03
 1.123985368E+03	 4.973799805E+03
 1.124543478E+03	 4.973399902E+03
 1.125101530E+03	 4.967799805E+03
 1.125659526E+03	 5.031000000E+03
 1.126217464E+03	 4.970399902E+03
 1.126775345E+03	 4.966000000E+03
 1.127333168E+03	 4.986200195E+03
 1.127890935E+03	 5.007399902E+03
 1.128448644E+03	 4.977600098E+03
 1.129006297E+03	 4.987600098E+03
 1.129563892E+03	 4.964600098E+03
 1.130121430E+03	 4.956399902E+03
 1.130678911E+03	 4.943000000E+03
 1.131236335E+03	 4.976000000E+03
 1.131793701E+03	 4.973000000E+03
 1.132351011E+03	 4.953200195E+03
 1.132908263E+03	 4.994200195E+03
 1.133465458E+03	 4.928399902E+03
 1.134022597E+03	 4.962600098E+03
 1.134579678E+03	 4.948799805E+03
 1.135136702E+03	 4.963000000E+03
 1.135693669E+03	 4.952000000E+03
 1.136250578E+03	 4.949799805E+03
 1.136807431E+03	 4.961600098E+03
 1.137364227E+03	 4.983799805E+03
 1.137920965E+03	 4.942200195E+03
 1.138477647E+03	 4.994000000E+03
 1.139034271E+03	 4.931000000E+03
 1.139590839E+03	 4.968600098E+03
 1.140147349E+03	 4.933000000E+03
 1.140703802E+03	 4.971200195E+03
 1.141260198E+03	 4.941200195E+03
 1.141816537E+03	 4.971399902E+03
 1.142372820E+03	 4.906000000E+03
 1.142929045E+03	 4.974200195E+03
 1.143485213E+03	 4.950600098E+03
 1.144041323E+03	 4.918600098E+03
 1.144597377E+03	 4.910799805E+03
 1.145153374E+03	 4.944000000E+03
 1.145709314E+03	 4.939799805E+03
 1.146265197E+03	 4.943399902E+03
 1.146821023E+03	 4.949600098E+03
 1.147376792E+03	 4.962000000E+03
 1.147932503E+03	 4.959799805E+03
 1.148488158E+03	 4.964399902E+03
 1.149043756E+03	 4.946600098E+03
 1.149599297E+03	 4.952399902E+03
 1.150154781E+03	 5.024200195E+03
 1.150710207E+03	 5.206000000E+03
 1.151265577E+03	 5.119000000E+03
 1.151820890E+03	 4.996000000E+03
 1.152376146E+03	 4.939399902E+03
 1.152931345E+03	 4.931399902E+03
 1.153486487E+03	 4.905000000E+03
 1.154041572E+03	 4.951600098E+03
 1.154596600E+03	 4.904200195E+03
 1.155151571E+03	 4.948200195E+03
 1.155706485E+03	 4.897200195E+03
 1.156261342E+03	 4.931600098E+03
 1.156816142E+03	 4.915000000E+03
 1.157370885E+03	 4.920399902E+03
 1.157925572E+03	 4.874000000E+03
 1.158480201E+03	 4.927200195E+03
 1.159034774E+03	 4.898799805E+03
 1.159589289E+03	 4.925399902E+03
 1.160143748E+03	 4.910000000E+03
 1.160698149E+03	 4.907200195E+03
 1.161252494E+03	 4.890799805E+03
 1.161806782E+03	 4.907000000E+03
 1.162361013E+03	 4.877600098E+03
 1.162915187E+03	 4.915799805E+03
 1.163469304E+03	 4.875600098E+03
 1.164023364E+03	 4.873799805E+03
 1.164577368E+03	 4.894600098E+03
 1.165131314E+03	 4.895600098E+03
 1.165685204E+03	 4.864600098E+03
 1.166239036E+03	 4.888799805E+03
 1.166792812E+03	 4.852600098E+03
 1.167346531E+03	 4.889000000E+03
 1.167900193E+03	 4.814200195E+03
 1.168453798E+03	 4.870600098E+03
 1.169007347E+03	 4.863399902E+03
 1.169560838E+03	 4.866399902E+03
 1.170114273E+03	 4.862600098E+03
 1.170667650E+03	 4.868799805E+03
 1.171220971E+03	 4.859200195E+03
 1.171774235E+03	 4.877799805E+03
 1.172327443E+03	 4.852600098E+03
 1.172880593E+03	 4.851600098E+03
 1.173433687E+03	 4.851200195E+03
 1.173986723E+03	 4.832200195E+03
 1.174539703E+03	 4.834000000E+03
 1.175092626E+03	 4.844000000E+03
 1.175645493E+03	 4.849000000E+03
 1.176198302E+03	 4.838399902E+03
 1.176751055E+03	 4.845000000E+03
 1.177303751E+03	 4.817200195E+03
 1.177856390E+03	 4.835000000E+03
 1.178408972E+03	 4.829799805E+03
 1.178961498E+03	 4.825399902E+03
 1.179513966E+03	 4.843200195E+03
 1.180066378E+03	 4.840000000E+03
 1.180618733E+03	 4.843399902E+03
 1.181171032E+03	 4.811799805E+03
 1.181723273E+03	 4.801399902E+03
 1.182275458E+03	 4.821799805E+03
 1.182827586E+03	 4.804000000E+03
 1.183379657E+03	 4.761799805E+03
 1.183931672E+03	 4.792399902E+03
 1.184483630E+03	 4.801600098E+03
 1.185035531E+03	 4.802799805E+03
 1.185587375E+03	 4.793399902E+03
 1.186139162E+03	 4.779399902E+03
 1.186690893E+03	 4.802399902E+03
 1.187242567E+03	 4.766600098E+03
 1.187794184E+03	 4.798399902E+03
 1.188345745E+03	 4.799600098E+03
 1.188897249E+03	 4.770600098E+03
 1.189448696E+03	 4.783200195E+03
 1.190000086E+03	 4.777399902E+03
 1.190551420E+03	 4.740600098E+03
 1.191102697E+03	 4.773200195E+03
 1.191653918E+03	 4.788000000E+03
 1.192205081E+03	 4.754399902E+03
 1.192756188E+03	 4.737200195E+03
 1.193307238E+03	 4.762200195E+03
 1.193858232E+03	 4.732799805E+03
 1.194409169E+03	 4.743799805E+03
 1.194960049E+03	 4.708799805E+03
 1.195510872E+03	 4.755000000E+03
 1.196061639E+03	 4.749000000E+03
 1.196612349E+03	 4.749200195E+03
 1.197163003E+03	 4.733000000E+03
 1.197713599E+03	 4.733600098E+03
 1.198264139E+03	 4.730000000E+03
 1.198814623E+03	 4.699399902E+03
 1.199365050E+03	 4.745399902E+03
 1.199915420E+03	 4.746600098E+03
 1.200465734E+03	 4.709399902E+03
 1.201015990E+03	 4.700399902E+03
 1.201566191E+03	 4.689600098E+03
 1.202116334E+03	 4.714200195E+03
 1.202666421E+03	 4.705399902E+03
 1.203216452E+03	 4.699600098E+03
 1.203766425E+03	 4.707399902E+03
 1.204316343E+03	 4.683000000E+03
 1.204866203E+03	 4.711600098E+03
 1.205416007E+03	 4.700200195E+03
 1.205965754E+03	 4.689600098E+03
 1.206515445E+03	 4.656600098E+03
 1.207065079E+03	 4.650200195E+03
 1.207614657E+03	 4.694799805E+03
 1.208164177E+03	 4.631600098E+03
 1.208713642E+03	 4.659600098E+03
 1.209263050E+03	 4.639799805E+03
 1.209812401E+03	 4.677600098E+03
 1.210361695E+03	 4.707600098E+03
 1.210910933E+03	 4.644399902E+03
 1.211460115E+03	 4.684000000E+03
 1.212009240E+03	 4.637799805E+03
 1.212558308E+03	 4.667000000E+03
 1.213107320E+03	 4.655000000E+03
 1.213656275E+03	 4.617200195E+03
 1.214205174E+03	 4.670799805E+03
 1.214754016E+03	 4.612399902E+03
 1.215302801E+03	 4.647200195E+03
 1.215851530E+03	 4.629399902E+03
 1.216400203E+03	 4.646799805E+03
 1.216948819E+03	 4.621200195E+03
 1.217497378E+03	 4.594000000E+03
 1.218045881E+03	 4.626399902E+03
 1.218594327E+03	 4.584600098E+03
 1.219142717E+03	 4.613799805E+03
 1.219691051E+03	 4.616600098E+03
 1.220239327E+03	 4.578799805E+03
 1.220787548E+03	 4.617399902E+03
 1.221335712E+03	 4.613000000E+03
 1.221883819E+03	 4.605000000E+03
 1.222431870E+03	 4.591200195E+03
 1.222979864E+03	 4.556600098E+03
 1.223527802E+03	 4.562600098E+03
 1.224075683E+03	 4.580000000E+03
 1.224623508E+03	 4.575399902E+03
 1.225171277E+03	 4.577799805E+03
 1.225718989E+03	 4.605200195E+03
 1.226266644E+03	 4.530600098E+03
 1.226814243E+03	 4.573799805E+03
 1.227361786E+03	 4.558799805E+03
 1.227909272E+03	 4.567399902E+03
 1.228456702E+03	 4.576000000E+03
 1.229004075E+03	 4.567799805E+03
 1.229551392E+03	 4.557600098E+03
 1.230098652E+03	 4.540399902E+03
 1.230645856E+03	 4.590799805E+03
 1.231193003E+03	 4.567000000E+03
 1.231740094E+03	 4.541799805E+03
 1.232287129E+03	 4.539399902E+03
 1.232834107E+03	 4.543000000E+03
 1.233381029E+03	 4.552399902E+03
 1.233927894E+03	 4.533799805E+03
 1.234474703E+03	 4.530399902E+03
 1.235021455E+03	 4.546799805E+03
 1.235568151E+03	 4.538600098E+03
 1.236114791E+03	 4.540000000E+03
 1.236661374E+03	 4.554000000E+03
 1.237207901E+03	 4.524600098E+03
 1.237754372E+03	 4.536799805E+03
 1.238300786E+03	 4.523000000E+03
 1.238847144E+03	 4.499600098E+03
 1.239393445E+03	 4.518600098E+03
 1.239939690E+03	 4.504000000E+03
 1.240485879E+03	 4.559200195E+03
 1.241032011E+03	 4.510200195E+03
 1.241578087E+03	 4.525799805E+03
 1.242124106E+03	 4.514799805E+03
 1.242670070E+03	 4.504399902E+03
 1.243215976E+03	 4.501600098E+03
 1.243761827E+03	 4.491000000E+03
 1.244307621E+03	 4.489000000E+03
 1.244853359E+03	 4.534600098E+03
 1.245399040E+03	 4.495200195E+03
 1.245944665E+03	 4.512000000E+03
 1.246490234E+03	 4.512000000E+03
 1.247035746E+03	 4.465799805E+03
 1.247581203E+03	 4.456399902E+03
 1.248126602E+03	 4.486799805E+03
 1.248671946E+03	 4.481200195E+03
 1.249217233E+03	 4.475399902E+03
 1.249762464E+03	 4.478799805E+03
 1.250307638E+03	 4.496399902E+03
 1.250852757E+03	 4.488000000E+03
 1.251397819E+03	 4.508799805E+03
 1.251942824E+03	 4.469799805E+03
 1.252487774E+03	 4.462399902E+03
 1.253032667E+03	 4.491200195E+03
 1.253577503E+03	 4.469000000E+03
 1.254122284E+03	 4.481399902E+03
 1.254667008E+03	 4.469399902E+03
 1.255211676E+03	 4.488000000E+03
 1.255756288E+03	 4.450600098E+03
 1.256300843E+03	 4.463799805E+03
 1.256845342E+03	 4.449000000E+03
 1.257389785E+03	 4.446600098E+03
 1.257934172E+03	 4.415399902E+03
 1.258478502E+03	 4.479799805E+03
 1.259022776E+03	 4.434399902E+03
 1.259566994E+03	 4.472000000E+03
 1.260111156E+03	 4.462399902E+03
 1.260655261E+03	 4.436000000E+03
 1.261199311E+03	 4.438000000E+03
 1.261743304E+03	 4.402600098E+03
 1.262287240E+03	 4.428000000E+03
 1.262831121E+03	 4.417600098E+03
 1.263374945E+03	 4.433200195E+03
 1.263918713E+03	 4.432399902E+03
 1.264462425E+03	 4.419399902E+03
 1.265006081E+03	 4.492799805E+03
 1.265549680E+03	 4.484399902E+03
 1.266093223E+03	 4.446000000E+03
 1.266636711E+03	 4.448799805E+03
 1.267180141E+03	 4.404799805E+03
 1.267723516E+03	 4.412000000E+03
 1.268266835E+03	 4.394200195E+03
 1.268810097E+03	 4.400600098E+03
 1.269353303E+03	 4.375200195E+03
 1.269896453E+03	 4.377200195E+03
 1.270439547E+03	 4.388600098E+03
 1.270982584E+03	 4.414799805E+03
 1.271525566E+03	 4.400600098E+03
 1.272068491E+03	 4.403200195E+03
 1.272611360E+03	 4.426000000E+03
 1.273154173E+03	 4.372000000E+03
 1.273696930E+03	 4.367799805E+03
 1.274239631E+03	 4.407799805E+03
 1.274782275E+03	 4.372799805E+03
 1.275324864E+03	 4.377200195E+03
 1.275867396E+03	 4.352399902E+03
 1.276409872E+03	 4.390600098E+03
 1.276952292E+03	 4.355399902E+03
 1.277494656E+03	 4.383600098E+03
 1.278036964E+03	 4.369000000E+03
 1.278579215E+03	 4.358600098E+03
 1.279121411E+03	 4.351200195E+03
 1.279663550E+03	 4.354000000E+03
 1.280205634E+03	 4.343799805E+03
 1.280747661E+03	 4.385799805E+03
 1.281289632E+03	 4.375799805E+03
 1.281831547E+03	 4.356200195E+03
 1.282373406E+03	 4.331399902E+03
 1.282915209E+03	 4.389200195E+03
 1.283456955E+03	 4.360000000E+03
 1.283998646E+03	 4.366799805E+03
 1.284540281E+03	 4.521399902E+03
 1.285081859E+03	 4.988799805E+03
 1.285623381E+03	 5.548799805E+03
 1.286164848E+03	 4.957200195E+03
 1.286706258E+03	 4.446399902E+03
 1.287247612E+03	 4.372000000E+03
 1.287788911E+03	 4.310600098E+03
 1.288330153E+03	 4.351600098E+03
 1.288871339E+03	 4.311600098E+03
 1.289412469E+03	 4.347200195E+03
 1.289953543E+03	 4.319799805E+03
 1.290494561E+03	 4.297600098E+03
 1.291035523E+03	 4.304600098E+03
 1.291576428E+03	 4.291399902E+03
 1.292117278E+03	 4.286399902E+03
 1.292658072E+03	 4.319200195E+03
 1.293198810E+03	 4.303000000E+03
 1.293739492E+03	 4.310200195E+03
 1.294280118E+03	 4.318600098E+03
 1.294820687E+03	 4.264399902E+03
 1.295361201E+03	 4.274399902E+03
 1.295901659E+03	 4.298799805E+03
 1.296442061E+03	 4.290000000E+03
 1.296982406E+03	 4.264399902E+03
 1.297522696E+03	 4.275000000E+03
 1.298062930E+03	 4.259600098E+03
 1.298603108E+03	 4.286200195E+03
 1.299143229E+03	 4.241200195E+03
 1.299683295E+03	 4.270600098E+03
 1.300223305E+03	 4.231200195E+03
 1.300763259E+03	 4.242799805E+03
 1.301303157E+03	 4.253000000E+03
 1.301842999E+03	 4.258000000E+03
 1.302382785E+03	 4.256399902E+03
 1.302922515E+03	 4.269000000E+03
 1.303462189E+03	 4.255000000E+03
 1.304001807E+03	 4.229600098E+03
 1.304541369E+03	 4.269200195E+03
 1.305080875E+03	 4.244399902E+03
 1.305620326E+03	 4.247200195E+03
 1.306159720E+03	 4.192000000E+03
 1.306699058E+03	 4.242399902E+03
 1.307238341E+03	 4.198399902E+03
 1.307777567E+03	 4.267399902E+03
 1.308316738E+03	 4.230799805E+03
 1.308855853E+03	 4.207600098E+03
 1.309394912E+03	 4.193399902E+03
 1.309933915E+03	 4.240399902E+03
 1.310472862E+03	 4.193399902E+03
 1.311011753E+03	 4.220799805E+03
 1.311550588E+03	 4.186000000E+03
 1.312089367E+03	 4.184200195E+03
 1.312628090E+03	 4.185799805E+03
 1.313166758E+03	 4.184399902E+03
 1.313705370E+03	 4.189000000E+03
 1.314243925E+03	 4.231399902E+03
 1.314782425E+03	 4.207000000E+03
 1.315320869E+03	 4.195600098E+03
 1.315859257E+03	 4.192200195E+03
 1.316397589E+03	 4.194600098E+03
 1.316935866E+03	 4.220200195E+03
 1.317474086E+03	 4.192200195E+03
 1.318012251E+03	 4.193000000E+03
 1.318550360E+03	 4.153799805E+03
 1.319088413E+03	 4.183200195E+03
 1.319626410E+03	 4.164000000E+03
 1.320164351E+03	 4.190799805E+03
 1.320702236E+03	 4.184600098E+03
 1.321240066E+03	 4.170600098E+03
 1.321777839E+03	 4.161000000E+03
 1.322315557E+03	 4.186200195E+03
 1.322853219E+03	 4.153600098E+03
 1.323390826E+03	 4.180000000E+03
 1.323928376E+03	 4.173799805E+03
 1.324465871E+03	 4.153600098E+03
 1.325003309E+03	 4.143600098E+03
 1.325540692E+03	 4.162200195E+03
 1.326078020E+03	 4.155399902E+03
 1.326615291E+03	 4.147799805E+03
 1.327152506E+03	 4.146600098E+03
 1.327689666E+03	 4.157600098E+03
 1.328226770E+03	 4.119000000E+03
 1.328763818E+03	 4.114000000E+03
 1.329300811E+03	 4.153200195E+03
 1.329837747E+03	 4.106600098E+03
 1.330374628E+03	 4.154399902E+03
 1.330911453E+03	 4.120799805E+03
 1.331448222E+03	 4.171399902E+03
 1.331984936E+03	 4.115799805E+03
 1.332521594E+03	 4.150399902E+03
 1.333058196E+03	 4.136200195E+03
 1.333594742E+03	 4.113799805E+03
 1.334131232E+03	 4.091600098E+03
 1.334667667E+03	 4.110799805E+03
 1.335204046E+03	 4.120000000E+03
 1.335740369E+03	 4.099399902E+03
 1.336276637E+03	 4.102200195E+03
 1.336812848E+03	 4.116799805E+03
 1.337349004E+03	 4.088000000E+03
 1.337885105E+03	 4.102600098E+03
 1.338421149E+03	 4.120200195E+03
 1.338957138E+03	 4.105399902E+03
 1.339493071E+03	 4.085399902E+03
 1.340028949E+03	 4.106399902E+03
 1.340564770E+03	 4.083600098E+03
 1.341100536E+03	 4.124799805E+03
 1.341636246E+03	 4.082199951E+03
 1.342171901E+03	 4.062800049E+03
 1.342707500E+03	 4.077800049E+03
 1.343243043E+03	 4.069399902E+03
 1.343778530E+03	 4.078399902E+03
 1.344313962E+03	 4.094399902E+03
 1.344849338E+03	 4.084000000E+03
 1.345384659E+03	 4.045600098E+03
 1.345919923E+03	 4.065800049E+03
 1.346455133E+03	 4.032600098E+03
 1.346990286E+03	 4.080600098E+03
 1.347525384E+03	 4.059800049E+03
 1.348060426E+03	 4.065000000E+03
 1.348595412E+03	 4.063600098E+03
 1.349130343E+03	 4.046800049E+03
 1.349665218E+03	 4.066000000E+03
 1.350200037E+03	 4.049199951E+03
 1.350734801E+03	 4.038600098E+03
 1.351269509E+03	 4.030600098E+03
 1.351804162E+03	 4.054800049E+03
 1.352338758E+03	 4.016800049E+03
 1.352873300E+03	 4.039399902E+03
 1.353407785E+03	 4.025000000E+03
 1.353942215E+03	 4.050199951E+03
 1.354476589E+03	 4.029199951E+03
 1.355010908E+03	 4.048199951E+03
 1.355545171E+03	 3.999800049E+03
 1.356079379E+03	 4.055000000E+03
 1.356613530E+03	 3.997600098E+03
 1.357147627E+03	 4.054399902E+03
 1.357681667E+03	 4.054600098E+03
 1.358215652E+03	 4.030399902E+03
 1.358749582E+03	 4.041199951E+03
 1.359283456E+03	 4.017600098E+03
 1.359817274E+03	 4.008399902E+03
 1.360351037E+03	 4.039800049E+03
 1.360884744E+03	 4.005600098E+03
 1.361418395E+03	 4.000800049E+03
 1.361951991E+03	 4.012399902E+03
 1.362485531E+03	 3.995199951E+03
 1.363019016E+03	 4.054000000E+03
 1.363552445E+03	 4.014199951E+03
 1.364085819E+03	 4.020000000E+03
 1.364619137E+03	 3.994600098E+03
 1.365152400E+03	 3.994800049E+03
 1.365685607E+03	 3.987800049E+03
 1.366218758E+03	 3.998600098E+03
 1.366751854E+03	 3.994800049E+03
 1.367284894E+03	 4.014000000E+03
 1.367817879E+03	 4.009000000E+03
 1.368350808E+03	 4.002800049E+03
 1.368883682E+03	 3.996600098E+03
 1.369416500E+03	 3.973000000E+03
 1.369949263E+03	 3.989199951E+03
 1.370481970E+03	 4.022000000E+03
 1.371014622E+03	 4.004199951E+03
 1.371547218E+03	 3.961199951E+03
 1.372079758E+03	 3.993000000E+03
 1.372612244E+03	 3.953600098E+03
 1.373144673E+03	 3.973600098E+03
 1.373677047E+03	 3.991199951E+03
 1.374209366E+03	 3.942399902E+03
 1.374741629E+03	 3.934800049E+03
 1.375273836E+03	 3.960399902E+03
 1.375805989E+03	 3.948600098E+03
 1.376338085E+03	 3.950199951E+03
 1.376870126E+03	 3.922399902E+03
 1.377402112E+03	 3.943600098E+03
 1.377934042E+03	 3.951000000E+03
 1.378465917E+03	 3.938399902E+03
 1.378997736E+03	 3.948000000E+03
 1.379529500E+03	 3.965800049E+03
 1.380061208E+03	 3.987199951E+03
 1.380592861E+03	 3.968600098E+03
 1.381124459E+03	 3.963600098E+03
 1.381656000E+03	 3.919800049E+03
 1.382187487E+03	 3.963199951E+03
 1.382718918E+03	 3.900600098E+03
 1.383250294E+03	 3.968600098E+03
 1.383781614E+03	 3.943399902E+03
 1.384312879E+03	 3.939199951E+03
 1.384844088E+03	 3.912199951E+03
 1.385375242E+03	 3.972199951E+03
 1.385906340E+03	 3.932800049E+03
 1.386437383E+03	 3.952600098E+03
 1.386968371E+03	 3.970000000E+03
 1.387499303E+03	 4.041800049E+03
 1.388030180E+03	 4.314200195E+03
 1.388561001E+03	 5.459000000E+03
 1.389091767E+03	 5.763600098E+03
 1.389622478E+03	 4.375600098E+03
 1.390153133E+03	 4.007199951E+03
 1.390683733E+03	 3.961399902E+03
 1.391214277E+03	 3.950000000E+03
 1.391744766E+03	 3.937399902E+03
 1.392275200E+03	 3.926399902E+03
 1.392805578E+03	 3.917000000E+03
 1.393335901E+03	 3.919399902E+03
 1.393866168E+03	 3.921000000E+03
 1.394396381E+03	 3.926399902E+03
 1.394926537E+03	 3.886600098E+03
 1.395456639E+03	 3.888800049E+03
 1.395986685E+03	 3.924600098E+03
 1.396516675E+03	 3.863199951E+03
 1.397046611E+03	 3.914000000E+03
 1.397576491E+03	 3.888600098E+03
 1.398106315E+03	 3.898199951E+03
 1.398636084E+03	 3.881600098E+03
 1.399165798E+03	 3.904800049E+03
 1.399695457E+03	 3.883399902E+03
 1.400225060E+03	 3.908600098E+03
 1.400754608E+03	 3.878399902E+03
 1.401284101E+03	 3.893800049E+03
 1.401813538E+03	 3.842600098E+03
 1.402342920E+03	 3.881399902E+03
 1.402872247E+03	 3.845399902E+03
 1.403401518E+03	 3.838199951E+03
 1.403930734E+03	 3.868800049E+03
 1.404459895E+03	 3.850800049E+03
 1.404989000E+03	 3.863800049E+03
 1.405518050E+03	 3.859199951E+03
 1.406047045E+03	 3.902399902E+03
 1.406575984E+03	 3.837399902E+03
 1.407104869E+03	 3.912199951E+03
 1.407633697E+03	 3.855399902E+03
 1.408162471E+03	 3.879199951E+03
 1.408691189E+03	 3.899600098E+03
 1.409219852E+03	 3.905800049E+03
 1.409748460E+03	 3.938399902E+03
 1.410277013E+03	 4.002199951E+03
 1.410805510E+03	 3.923399902E+03
 1.411333952E+03	 3.876600098E+03
 1.411862339E+03	 3.862600098E+03
 1.412390670E+03	 3.857800049E+03
 1.412918946E+03	 3.856000000E+03
 1.413447167E+03	 3.835199951E+03
 1.413975333E+03	 3.863199951E+03
 1.414503444E+03	 3.846199951E+03
 1.415031499E+03	 3.889399902E+03
 1.415559499E+03	 3.868800049E+03
 1.416087444E+03	 3.860800049E+03
 1.416615333E+03	 3.827600098E+03
 1.417143167E+03	 3.879800049E+03
 1.417670947E+03	 3.806600098E+03
 1.418198670E+03	 3.838399902E+03
 1.418726339E+03	 3.813000000E+03
 1.419253952E+03	 3.841199951E+03
 1.419781511E+03	 3.831199951E+03
 1.420309014E+03	 3.827800049E+03
 1.420836461E+03	 3.840399902E+03
 1.421363854E+03	 3.806800049E+03
 1.421891191E+03	 3.832399902E+03
 1.422418474E+03	 3.818800049E+03
 1.422945701E+03	 3.833399902E+03
 1.423472872E+03	 3.823199951E+03
 1.423999989E+03	 3.824600098E+03
 1.424527050E+03	 3.823600098E+03
 1.425054057E+03	 3.858000000E+03
 1.425581008E+03	 3.825600098E+03
 1.426107904E+03	 3.847000000E+03
 1.426634745E+03	 3.836800049E+03
 1.427161530E+03	 3.810000000E+03
 1.427688261E+03	 3.833800049E+03
 1.428214936E+03	 3.833399902E+03
 1.428741556E+03	 3.807600098E+03
 1.429268121E+03	 3.809600098E+03
 1.429794631E+03	 3.800000000E+03
 1.430321085E+03	 3.803800049E+03
 1.430847485E+03	 3.801800049E+03
 1.431373829E+03	 3.791000000E+03
 1.431900118E+03	 3.830000000E+03
 1.432426353E+03	 3.801000000E+03
 1.432952532E+03	 3.778399902E+03
 1.433478655E+03	 3.793399902E+03
 1.434004724E+03	 3.809600098E+03
 1.434530738E+03	 3.790000000E+03
 1.435056696E+03	 3.786399902E+03
 1.435582600E+03	 3.817000000E+03
 1.436108448E+03	 3.788600098E+03
 1.436634241E+03	 3.756800049E+03
 1.437159979E+03	 3.776600098E+03
 1.437685662E+03	 3.757800049E+03
 1.438211290E+03	 3.804199951E+03
 1.438736863E+03	 3.778600098E+03
 1.439262381E+03	 3.794199951E+03
 1.439787843E+03	 3.775600098E+03
 1.440313251E+03	 3.774600098E+03
 1.440838603E+03	 3.768000000E+03
 1.441363900E+03	 3.743600098E+03
 1.441889143E+03	 3.760399902E+03
 1.442414330E+03	 3.768399902E+03
 1.442939462E+03	 3.767000000E+03
 1.443464539E+03	 3.773000000E+03
 1.443989561E+03	 3.746000000E+03
 1.444514528E+03	 3.746399902E+03
 1.445039440E+03	 3.739800049E+03
 1.445564297E+03	 3.740600098E+03
 1.446089099E+03	 3.744000000E+03
 1.446613846E+03	 3.743399902E+03
 1.447138537E+03	 3.741000000E+03
 1.447663174E+03	 3.742199951E+03
 1.448187756E+03	 3.723600098E+03
 1.448712282E+03	 3.737600098E+03
 1.449236754E+03	 3.727199951E+03
 1.449761171E+03	 3.757399902E+03
 1.450285532E+03	 3.724000000E+03
 1.450809839E+03	 3.731800049E+03
 1.451334090E+03	 3.738199951E+03
 1.451858287E+03	 3.736600098E+03
 1.452382428E+03	 3.705399902E+03
 1.452906515E+03	 3.719399902E+03
 1.453430546E+03	 3.724800049E+03
 1.453954523E+03	 3.728600098E+03
 1.454478444E+03	 3.734600098E+03
 1.455002311E+03	 3.717199951E+03
 1.455526123E+03	 3.742800049E+03
 1.456049879E+03	 3.753600098E+03
 1.456573581E+03	 3.726000000E+03
 1.457097227E+03	 3.675000000E+03
 1.457620819E+03	 3.726800049E+03
 1.458144356E+03	 3.704399902E+03
 1.458667837E+03	 3.708800049E+03
 1.459191264E+03	 3.702199951E+03
 1.459714636E+03	 3.694199951E+03
 1.460237952E+03	 3.700800049E+03
 1.460761214E+03	 3.721199951E+03
 1.461284421E+03	 3.704800049E+03
 1.461807573E+03	 3.711000000E+03
 1.462330670E+03	 3.673800049E+03
 1.462853712E+03	 3.671600098E+03
 1.463376699E+03	 3.674399902E+03
 1.463899632E+03	 3.687399902E+03
 1.464422509E+03	 3.691199951E+03
 1.464945331E+03	 3.678600098E+03
 1.465468099E+03	 3.671000000E+03
 1.465990811E+03	 3.677000000E+03
 1.466513469E+03	 3.691199951E+03
 1.467036071E+03	 3.663800049E+03
 1.467558619E+03	 3.695600098E+03
 1.468081112E+03	 3.670399902E+03
 1.468603550E+03	 3.661000000E+03
 1.469125933E+03	 3.680600098E+03
 1.469648261E+03	 3.662399902E+03
 1.470170534E+03	 3.654399902E+03
 1.470692752E+03	 3.648800049E+03
 1.471214916E+03	 3.686199951E+03
 1.471737024E+03	 3.626800049E+03
 1.472259078E+03	 3.682399902E+03
 1.472781077E+03	 3.636199951E+03
 1.473303021E+03	 3.668800049E+03
 1.473824910E+03	 3.638199951E+03
 1.474346744E+03	 3.671399902E+03
 1.474868523E+03	 3.630600098E+03
 1.475390248E+03	 3.642199951E+03
 1.475911917E+03	 3.623600098E+03
 1.476433532E+03	 3.658600098E+03
 1.476955092E+03	 3.625000000E+03
 1.477476597E+03	 3.632199951E+03
 1.477998047E+03	 3.645000000E+03
 1.478519442E+03	 3.600399902E+03
 1.479040783E+03	 3.662000000E+03
 1.479562068E+03	 3.647399902E+03
 1.480083299E+03	 3.665600098E+03
 1.480604475E+03	 3.635000000E+03
 1.481125596E+03	 3.637000000E+03
 1.481646663E+03	 3.629800049E+03
 1.482167674E+03	 3.625399902E+03
 1.482688631E+03	 3.603800049E+03
 1.483209533E+03	 3.610600098E+03
 1.483730380E+03	 3.610800049E+03
 1.484251172E+03	 3.602800049E+03
 1.484771909E+03	 3.636800049E+03
 1.485292592E+03	 3.601000000E+03
 1.485813220E+03	 3.626000000E+03
 1.486333793E+03	 3.599800049E+03
 1.486854311E+03	 3.644199951E+03
 1.487374775E+03	 3.581800049E+03
 1.487895183E+03	 3.600000000E+03
 1.488415537E+03	 3.590199951E+03
 1.488935836E+03	 3.603399902E+03
 1.489456081E+03	 3.629600098E+03
 1.489976270E+03	 3.598199951E+03
 1.490496405E+03	 3.622399902E+03
 1.491016485E+03	 3.584800049E+03
 1.491536511E+03	 3.610600098E+03
 1.492056481E+03	 3.585800049E+03
 1.492576397E+03	 3.567199951E+03
 1.493096258E+03	 3.575800049E+03
 1.493616064E+03	 3.601399902E+03
 1.494135816E+03	 3.583800049E+03
 1.494655513E+03	 3.596600098E+03
 1.495175155E+03	 3.582600098E+03
 1.495694742E+03	 3.581800049E+03
 1.496214274E+03	 3.585399902E+03
 1.496733752E+03	 3.548399902E+03
 1.497253175E+03	 3.579199951E+03
 1.497772544E+03	 3.585800049E+03
 1.498291858E+03	 3.591800049E+03
 1.498811116E+03	 3.571000000E+03
 1.499330321E+03	 3.568600098E+03
 1.499849470E+03	 3.602399902E+03
 1.500368565E+03	 3.546000000E+03
 1.500887605E+03	 3.549800049E+03
 1.501406591E+03	 3.540000000E+03
 1.501925521E+03	 3.577000000E+03
 1.502444397E+03	 3.561600098E+03
 1.502963219E+03	 3.547600098E+03
 1.503481985E+03	 3.584199951E+03
 1.504000697E+03	 3.563199951E+03
 1.504519355E+03	 3.530600098E+03
 1.505037957E+03	 3.552000000E+03
 1.505556505E+03	 3.554600098E+03
 1.506074999E+03	 3.546800049E+03
 1.506593437E+03	 3.532199951E+03
 1.507111821E+03	 3.541600098E+03
 1.507630150E+03	 3.507600098E+03
 1.508148425E+03	 3.532800049E+03
 1.508666645E+03	 3.533399902E+03
 1.509184810E+03	 3.507199951E+03
 1.509702921E+03	 3.528399902E+03
 1.510220977E+03	 3.503399902E+03
 1.510738979E+03	 3.567199951E+03
 1.511256925E+03	 3.523600098E+03
 1.511774817E+03	 3.515199951E+03
 1.512292655E+03	 3.543800049E+03
 1.512810438E+03	 3.540399902E+03
 1.513328166E+03	 3.545000000E+03
 1.513845840E+03	 3.566800049E+03
 1.514363459E+03	 3.531600098E+03
 1.514881023E+03	 3.517000000E+03
 1.515398533E+03	 3.497600098E+03
 1.515915988E+03	 3.522000000E+03
 1.516433389E+03	 3.546600098E+03
 1.516950734E+03	 3.534600098E+03
 1.517468026E+03	 3.502199951E+03
 1.517985263E+03	 3.489399902E+03
 1.518502445E+03	 3.534800049E+03
 1.519019572E+03	 3.531800049E+03
 1.519536645E+03	 3.505399902E+03
 1.520053664E+03	 3.531600098E+03
 1.520570628E+03	 3.506600098E+03
 1.521087537E+03	 3.513000000E+03
 1.521604392E+03	 3.500199951E+03
 1.522121192E+03	 3.526199951E+03
 1.522637937E+03	 3.504399902E+03
 1.523154628E+03	 3.510199951E+03
 1.523671265E+03	 3.509800049E+03
 1.524187847E+03	 3.502600098E+03
 1.524704374E+03	 3.508600098E+03
 1.525220847E+03	 3.503600098E+03
 1.525737265E+03	 3.493199951E+03
 1.526253629E+03	 3.496000000E+03
 1.526769938E+03	 3.502399902E+03
 1.527286192E+03	 3.492600098E+03
 1.527802392E+03	 3.501199951E+03
 1.528318538E+03	 3.490800049E+03
 1.528834629E+03	 3.492600098E+03
 1.529350666E+03	 3.511399902E+03
 1.529866648E+03	 3.496399902E+03
 1.530382575E+03	 3.494000000E+03
 1.530898448E+03	 3.485199951E+03
 1.531414266E+03	 3.527600098E+03
 1.531930030E+03	 3.483399902E+03
 1.532445740E+03	 3.502000000E+03
 1.532961395E+03	 3.478399902E+03
 1.533476995E+03	 3.523399902E+03
 1.533992541E+03	 3.474600098E+03
 1.534508033E+03	 3.504600098E+03
 1.535023470E+03	 3.490399902E+03
 1.535538852E+03	 3.484600098E+03
 1.536054180E+03	 3.502199951E+03
 1.536569454E+03	 3.502600098E+03
 1.537084673E+03	 3.500000000E+03
 1.537599837E+03	 3.463399902E+03
 1.538114947E+03	 3.488399902E+03
 1.538630003E+03	 3.461000000E+03
 1.539145004E+03	 3.528199951E+03
 1.539659951E+03	 3.448600098E+03
 1.540174843E+03	 3.489000000E+03
 1.540689681E+03	 3.486600098E+03
 1.541204465E+03	 3.472800049E+03
 1.541719194E+03	 3.499399902E+03
 1.542233868E+03	 3.481000000E+03
 1.542748488E+03	 3.490800049E+03
 1.543263054E+03	 3.480000000E+03
 1.543777565E+03	 3.479199951E+03
 1.544292022E+03	 3.465000000E+03
 1.544806424E+03	 3.483199951E+03
 1.545320772E+03	 3.458399902E+03
 1.545835066E+03	 3.475600098E+03
 1.546349305E+03	 3.496600098E+03
 1.546863489E+03	 3.457600098E+03
 1.547377620E+03	 3.472000000E+03
 1.547891696E+03	 3.464600098E+03
 1.548405717E+03	 3.458399902E+03
 1.548919684E+03	 3.484600098E+03
 1.549433597E+03	 3.476800049E+03
 1.549947455E+03	 3.492199951E+03
 1.550461259E+03	 3.441199951E+03
 1.550975009E+03	 3.480199951E+03
 1.551488704E+03	 3.464000000E+03
 1.552002345E+03	 3.439000000E+03
 1.552515931E+03	 3.482000000E+03
 1.553029463E+03	 3.448399902E+03
 1.553542941E+03	 3.477199951E+03
 1.554056364E+03	 3.489399902E+03
 1.554569733E+03	 3.496199951E+03
 1.555083048E+03	 3.472800049E+03
 1.555596308E+03	 3.472199951E+03
 1.556109514E+03	 3.464199951E+03
 1.556622665E+03	 3.468199951E+03
 1.557135762E+03	 3.469600098E+03
 1.557648805E+03	 3.460800049E+03
 1.558161794E+03	 3.468399902E+03
 1.558674728E+03	 3.449800049E+03
 1.559187608E+03	 3.470000000E+03
 1.559700433E+03	 3.448000000E+03
 1.560213205E+03	 3.439800049E+03
 1.560725921E+03	 3.468800049E+03
 1.561238584E+03	 3.429000000E+03
 1.561751192E+03	 3.448000000E+03
 1.562263746E+03	 3.459000000E+03
 1.562776246E+03	 3.450600098E+03
 1.563288691E+03	 3.438399902E+03
 1.563801082E+03	 3.437800049E+03
 1.564313419E+03	 3.455199951E+03
 1.564825701E+03	 3.440800049E+03
 1.565337929E+03	 3.457199951E+03
 1.565850103E+03	 3.471600098E+03
 1.566362223E+03	 3.445600098E+03
 1.566874288E+03	 3.472600098E+03
 1.567386299E+03	 3.430399902E+03
 1.567898256E+03	 3.426600098E+03
 1.568410158E+03	 3.408000000E+03
 1.568922007E+03	 3.458199951E+03
 1.569433800E+03	 3.446800049E+03
 1.569945540E+03	 3.456800049E+03
 1.570457226E+03	 3.405600098E+03
 1.570968857E+03	 3.423399902E+03
 1.571480434E+03	 3.442600098E+03
 1.571991956E+03	 3.444399902E+03
 1.572503425E+03	 3.423199951E+03
 1.573014839E+03	 3.439199951E+03
 1.573526199E+03	 3.454800049E+03
 1.574037505E+03	 3.433600098E+03
 1.574548756E+03	 3.426600098E+03
 1.575059953E+03	 3.429000000E+03
 1.575571096E+03	 3.441000000E+03
 1.576082185E+03	 3.457199951E+03
 1.576593220E+03	 3.448399902E+03
 1.577104200E+03	 3.429000000E+03
 1.577615126E+03	 3.441600098E+03
 1.578125998E+03	 3.447600098E+03
 1.578636816E+03	 3.399399902E+03
 1.579147580E+03	 3.435199951E+03
 1.579658289E+03	 3.429399902E+03
 1.580168944E+03	 3.419600098E+03
 1.580679545E+03	 3.397399902E+03
 1.581190092E+03	 3.421800049E+03
 1.581700585E+03	 3.414600098E+03
 1.582211023E+03	 3.420399902E+03
 1.582721407E+03	 3.431800049E+03
 1.583231737E+03	 3.397600098E+03
 1.583742013E+03	 3.435000000E+03
 1.584252235E+03	 3.376199951E+03
 1.584762403E+03	 3.397600098E+03
 1.585272516E+03	 3.373800049E+03
 1.585782575E+03	 3.426600098E+03
 1.586292581E+03	 3.434600098E+03
 1.586802532E+03	 3.409800049E+03
 1.587312428E+03	 3.441399902E+03
 1.587822271E+03	 3.417000000E+03
 1.588332060E+03	 3.412199951E+03
 1.588841794E+03	 3.390399902E+03
 1.589351474E+03	 3.397399902E+03
 1.589861100E+03	 3.355800049E+03
 1.590370672E+03	 3.428000000E+03
 1.590880190E+03	 3.387600098E+03
 1.591389654E+03	 3.404600098E+03
 1.591899064E+03	 3.408399902E+03
 1.592408419E+03	 3.367399902E+03
