1042.452273	8108.399902
1043.018714	8143.799805
1043.585098	8067.0
1044.151424	8172.600098
1044.717692	8081.600098
1045.283903	8163.200195
1045.850056	8106.399902
1046.416151	8127.200195
1046.982188	8091.399902
1047.548167	8055.0
1048.114089	8039.399902
1048.679953	8124.399902
1049.24576	8068.399902
1049.811509	8110.600098
1050.3772	8019.799805
1050.942833	8076.600098
1051.508408	8033.399902
1052.073926	8046.600098
1052.639387	8095.200195
1053.204789	8037.200195
1053.770134	8038.799805
1054.335421	8077.799805
1054.900651	8054.200195
1055.465823	8010.200195
1056.030937	8050.600098
1056.595993	8021.200195
1057.160992	8044.200195
1057.725934	8022.0
1058.290817	8027.600098
1058.855643	7978.200195
1059.420411	7993.399902
1059.985122	7974.399902
1060.549775	7994.200195
1061.114371	7989.0
1061.678908	8021.200195
1062.243389	7973.0
1062.807811	8007.399902
1063.372176	7955.600098
1063.936483	7991.200195
1064.500733	7925.0
1065.064925	7963.200195
1065.62906	7932.399902
1066.193137	7988.0
1066.757156	7880.399902
1067.321118	7974.600098
1067.885022	7901.200195
1068.448869	7965.0
1069.012658	7928.399902
1069.57639	7941.799805
1070.140063	7865.600098
1070.70368	7876.0
1071.267239	7890.200195
1071.83074	7915.799805
1072.394184	7873.200195
1072.95757	7923.799805
1073.520899	7842.399902
1074.08417	7899.200195
1074.647383	7834.399902
1075.21054	7837.200195
1075.773638	7776.799805
1076.336679	7896.0
1076.899663	7838.200195
1077.462589	7822.200195
1078.025457	7799.200195
1078.588268	7887.0
1079.151022	7843.0
1079.713718	7844.0
1080.276356	7806.200195
1080.838937	7804.200195
1081.401461	7749.399902
1081.963927	7780.799805
1082.526336	7786.399902
1083.088687	7828.0
1083.650981	7733.200195
1084.213217	7758.200195
1084.775396	7715.600098
1085.337517	7755.799805
1085.899581	7694.0
1086.461587	7779.600098
1087.023536	7674.799805
1087.585428	7756.399902
1088.147262	7701.0
1088.709039	7694.399902
1089.270758	7637.799805
1089.83242	7703.200195
1090.394024	7664.200195
1090.955571	7639.0
1091.517061	7580.0
1092.078493	7640.600098
1092.639868	7570.200195
1093.201185	7634.200195
1093.762445	7579.399902
1094.323648	7667.799805
1094.884793	7609.0
1095.445881	7631.0
1096.006911	7521.0
1096.567884	7590.399902
1097.1288	7548.799805
1097.689659	7591.799805
1098.25046	7509.799805
1098.811203	7614.0
1099.37189	7517.0
1099.932518	7586.399902
1100.49309	7522.200195
1101.053604	7559.200195
1101.614061	7469.200195
1102.174461	7526.0
1102.734803	7485.0
1103.295088	7511.600098
1103.855316	7421.600098
1104.415486	7467.600098
1104.975599	7415.799805
1105.535655	7471.0
1106.095653	7406.0
1106.655594	7478.600098
1107.215478	7361.600098
1107.775305	7403.600098
1108.335074	7392.200195
1108.894786	7424.200195
1109.45444	7329.600098
1110.014038	7452.799805
1110.573578	7341.799805
1111.133061	7417.799805
1111.692486	7326.799805
1112.251854	7428.200195
1112.811165	7307.799805
1113.370419	7366.799805
1113.929616	7313.0
1114.488755	7348.200195
1115.047837	7300.600098
1115.606862	7340.0
1116.16583	7275.600098
1116.72474	7362.799805
1117.283593	7314.799805
1117.842389	7319.0
1118.401128	7260.799805
1118.959809	7349.799805
1119.518433	7287.600098
1120.077	7313.0
1120.63551	7297.0
1121.193963	7278.799805
1121.752358	7257.200195
1122.310697	7315.600098
1122.868978	7256.799805
1123.427202	7279.0
1123.985368	7261.200195
1124.543478	7222.799805
1125.10153	7225.0
1125.659526	7267.0
1126.217464	7256.600098
1126.775345	7272.0
1127.333168	7278.600098
1127.890935	7232.200195
1128.448644	7217.200195
1129.006297	7255.600098
1129.563892	7224.399902
1130.12143	7199.600098
1130.678911	7207.799805
1131.236335	7208.200195
1131.793701	7250.600098
1132.351011	7208.600098
1132.908263	7211.600098
1133.465458	7192.0
1134.022597	7195.0
1134.579678	7219.200195
1135.136702	7196.600098
1135.693669	7198.0
1136.250578	7225.600098
1136.807431	7181.799805
1137.364227	7194.200195
1137.920965	7186.200195
1138.477647	7186.200195
1139.034271	7191.399902
1139.590839	7196.799805
1140.147349	7135.799805
1140.703802	7194.0
1141.260198	7159.799805
1141.816537	7257.600098
1142.37282	7192.200195
1142.929045	7229.600098
1143.485213	7147.0
1144.041323	7197.200195
1144.597377	7136.799805
1145.153374	7215.399902
1145.709314	7151.399902
1146.265197	7213.200195
1146.821023	7172.399902
1147.376792	7221.200195
1147.932503	7169.200195
1148.488158	7149.799805
1149.043756	7148.0
1149.599297	7192.799805
1150.154781	7134.799805
1150.710207	7211.600098
1151.265577	7169.0
1151.82089	7231.399902
1152.376146	7170.0
1152.931345	7229.0
1153.486487	7129.399902
1154.041572	7139.799805
1154.5966	7149.200195
1155.151571	7216.600098
1155.706485	7148.799805
1156.261342	7204.399902
1156.816142	7126.799805
1157.370885	7152.600098
1157.925572	7152.0
1158.480201	7211.600098
1159.034774	7122.0
1159.589289	7180.200195
1160.143748	7116.799805
1160.698149	7145.799805
1161.252494	7118.0
1161.806782	7162.399902
1162.361013	7108.799805
1162.915187	7137.200195
1163.469304	7162.0
1164.023364	7175.799805
1164.577368	7117.200195
1165.131314	7123.399902
1165.685204	7087.799805
1166.239036	7137.0
1166.792812	7098.200195
1167.346531	7165.799805
1167.900193	7098.200195
1168.453798	7082.0
1169.007347	7060.399902
1169.560838	7119.200195
1170.114273	7113.600098
1170.66765	7129.799805
1171.220971	7063.0
1171.774235	7084.0
1172.327443	7070.399902
1172.880593	7116.200195
1173.433687	7120.200195
1173.986723	7066.0
1174.539703	7087.600098
1175.092626	7037.200195
1175.645493	7061.600098
1176.198302	7048.399902
1176.751055	7031.399902
1177.303751	7049.0
1177.85639	7075.399902
1178.408972	7081.200195
1178.961498	7058.600098
1179.513966	7008.799805
1180.066378	7036.200195
1180.618733	6970.0
1181.171032	7045.600098
1181.723273	6962.200195
1182.275458	7045.600098
1182.827586	6959.200195
1183.379657	7012.600098
1183.931672	6983.0
1184.48363	7042.799805
1185.035531	6979.200195
1185.587375	7009.600098
1186.139162	6986.399902
1186.690893	6953.799805
1187.242567	6996.600098
1187.794184	6965.0
1188.345745	6963.399902
1188.897249	6983.799805
1189.448696	6974.600098
1190.000086	6992.0
1190.55142	6895.600098
1191.102697	6930.799805
1191.653918	6941.799805
1192.205081	6967.0
1192.756188	6925.799805
1193.307238	6972.600098
1193.858232	6901.0
1194.409169	6917.200195
1194.960049	6944.600098
1195.510872	6952.399902
1196.061639	6908.799805
1196.612349	6923.600098
1197.163003	6903.200195
1197.713599	6865.799805
1198.264139	6910.600098
1198.814623	6883.0
1199.36505	6881.0
1199.91542	6871.600098
1200.465734	6887.200195
1201.01599	6868.799805
1201.566191	6893.799805
1202.116334	6872.399902
1202.666421	6887.200195
1203.216452	6886.600098
1203.766425	6824.799805
1204.316343	6825.200195
1204.866203	6807.399902
1205.416007	6827.799805
1205.965754	6847.0
1206.515445	6799.799805
1207.065079	6824.200195
1207.614657	6782.799805
1208.164177	6810.799805
1208.713642	6823.399902
1209.26305	6779.399902
1209.812401	6798.200195
1210.361695	6791.600098
1210.910933	6779.600098
1211.460115	6792.200195
1212.00924	6742.799805
1212.558308	6791.399902
1213.10732	6769.799805
1213.656275	6762.0
1214.205174	6762.799805
1214.754016	6790.600098
1215.302801	6731.399902
1215.85153	6759.799805
1216.400203	6770.0
1216.948819	6709.399902
1217.497378	6705.600098
1218.045881	6705.0
1218.594327	6719.399902
1219.142717	6709.0
1219.691051	6712.0
1220.239327	6709.600098
1220.787548	6688.600098
1221.335712	6706.0
1221.883819	6662.0
1222.43187	6720.399902
1222.979864	6699.799805
1223.527802	6669.600098
1224.075683	6641.0
1224.623508	6690.600098
1225.171277	6648.399902
1225.718989	6684.399902
1226.266644	6683.399902
1226.814243	6648.200195
1227.361786	6666.600098
1227.909272	6667.799805
1228.456702	6636.399902
1229.004075	6683.0
1229.551392	6657.799805
1230.098652	6639.0
1230.645856	6669.200195
1231.193003	6639.200195
1231.740094	6605.600098
1232.287129	6634.0
1232.834107	6644.799805
1233.381029	6596.399902
1233.927894	6599.600098
1234.474703	6612.0
1235.021455	6600.200195
1235.568151	6663.799805
1236.114791	6597.200195
1236.661374	6595.200195
1237.207901	6612.0
1237.754372	6602.0
1238.300786	6586.399902
1238.847144	6619.799805
1239.393445	6575.399902
1239.93969	6587.399902
1240.485879	6563.600098
1241.032011	6583.600098
1241.578087	6645.600098
1242.124106	6552.600098
1242.67007	6574.0
1243.215976	6557.600098
1243.761827	6599.399902
1244.307621	6529.200195
1244.853359	6584.399902
1245.39904	6555.200195
1245.944665	6559.0
1246.490234	6520.600098
1247.035746	6533.799805
1247.581203	6534.399902
1248.126602	6511.0
1248.671946	6569.0
1249.217233	6528.600098
1249.762464	6509.799805
1250.307638	6528.0
1250.852757	6516.0
1251.397819	6532.799805
1251.942824	6545.200195
1252.487774	6558.399902
1253.032667	6508.600098
1253.577503	6520.399902
1254.122284	6489.399902
1254.667008	6481.799805
1255.211676	6518.200195
1255.756288	6476.399902
1256.300843	6474.600098
1256.845342	6512.399902
1257.389785	6495.399902
1257.934172	6491.600098
1258.478502	6518.600098
1259.022776	6473.799805
1259.566994	6476.200195
1260.111156	6494.399902
1260.655261	6492.200195
1261.199311	6505.799805
1261.743304	6474.200195
1262.28724	6438.799805
1262.831121	6485.0
1263.374945	6466.600098
1263.918713	6496.200195
1264.462425	6478.0
1265.006081	6525.399902
1265.54968	6495.799805
1266.093223	6507.200195
1266.636711	6451.799805
1267.180141	6455.600098
1267.723516	6445.399902
1268.266835	6466.600098
1268.810097	6456.799805
1269.353303	6411.799805
1269.896453	6375.799805
1270.439547	6442.200195
1270.982584	6419.600098
1271.525566	6434.0
1272.068491	6415.399902
1272.61136	6391.799805
1273.154173	6409.600098
1273.69693	6430.399902
1274.239631	6359.600098
1274.782275	6394.600098
1275.324864	6416.399902
1275.867396	6402.399902
1276.409872	6388.600098
1276.952292	6415.399902
1277.494656	6396.200195
1278.036964	6403.0
1278.579215	6397.0
1279.121411	6394.200195
1279.66355	6352.600098
1280.205634	6366.200195
1280.747661	6398.600098
1281.289632	6348.0
1281.831547	6383.200195
1282.373406	6363.799805
1282.915209	6406.600098
1283.456955	6392.399902
1283.998646	6404.0
1284.540281	6487.399902
1285.081859	6922.200195
1285.623381	7442.399902
1286.164848	6949.0
1286.706258	6497.600098
1287.247612	6395.200195
1287.788911	6370.600098
1288.330153	6370.799805
1288.871339	6316.0
1289.412469	6343.399902
1289.953543	6330.600098
1290.494561	6331.799805
1291.035523	6295.0
1291.576428	6322.799805
1292.117278	6285.799805
1292.658072	6317.200195
1293.19881	6280.200195
1293.739492	6305.200195
1294.280118	6279.399902
1294.820687	6284.0
1295.361201	6327.200195
1295.901659	6250.600098
1296.442061	6312.200195
1296.982406	6232.0
1297.522696	6316.200195
1298.06293	6266.799805
1298.603108	6279.799805
1299.143229	6241.200195
1299.683295	6224.200195
1300.223305	6189.600098
1300.763259	6238.799805
1301.303157	6188.600098
1301.842999	6233.0
1302.382785	6203.799805
1302.922515	6229.0
1303.462189	6211.399902
1304.001807	6212.0
1304.541369	6232.0
1305.080875	6233.200195
1305.620326	6222.399902
1306.15972	6195.200195
1306.699058	6166.799805
1307.238341	6179.600098
1307.777567	6201.399902
1308.316738	6173.799805
1308.855853	6177.0
1309.394912	6189.200195
1309.933915	6199.399902
1310.472862	6143.399902
1311.011753	6189.799805
1311.550588	6123.600098
1312.089367	6164.600098
1312.62809	6160.799805
1313.166758	6163.600098
1313.70537	6164.399902
1314.243925	6173.399902
1314.782425	6138.0
1315.320869	6146.200195
1315.859257	6138.799805
1316.397589	6117.600098
1316.935866	6152.200195
1317.474086	6132.399902
1318.012251	6156.399902
1318.55036	6100.799805
1319.088413	6136.399902
1319.62641	6097.399902
1320.164351	6089.0
1320.702236	6103.399902
1321.240066	6120.799805
1321.777839	6073.399902
1322.315557	6106.600098
1322.853219	6119.799805
1323.390826	6128.0
1323.928376	6091.0
1324.465871	6109.799805
1325.003309	6087.600098
1325.540692	6071.200195
1326.07802	6107.399902
1326.615291	6135.799805
1327.152506	6059.399902
1327.689666	6052.200195
1328.22677	6091.0
1328.763818	6043.0
1329.300811	6056.799805
1329.837747	6100.600098
1330.374628	6091.200195
1330.911453	6052.600098
1331.448222	6066.200195
1331.984936	5993.600098
1332.521594	6051.200195
1333.058196	6020.600098
1333.594742	6052.799805
1334.131232	5973.399902
1334.667667	6047.399902
1335.204046	6034.399902
1335.740369	6018.600098
1336.276637	6001.0
1336.812848	6005.799805
1337.349004	6023.799805
1337.885105	6086.799805
1338.421149	6034.0
1338.957138	6000.200195
1339.493071	6010.799805
1340.028949	5984.200195
1340.56477	6037.600098
1341.100536	5969.399902
1341.636246	6015.200195
1342.171901	6002.200195
1342.7075	6004.600098
1343.243043	5968.399902
1343.77853	6019.799805
1344.313962	5975.399902
1344.849338	6002.200195
1345.384659	5986.200195
1345.919923	5991.0
1346.455133	5940.600098
1346.990286	5971.600098
1347.525384	5930.0
1348.060426	5975.600098
1348.595412	5973.399902
1349.130343	5960.0
1349.665218	5958.200195
1350.200037	5946.0
1350.734801	5969.799805
1351.269509	5913.200195
1351.804162	5959.200195
1352.338758	5909.600098
1352.8733	5939.200195
1353.407785	5927.200195
1353.942215	5905.600098
1354.476589	5956.799805
1355.010908	5990.600098
1355.545171	5917.600098
1356.079379	5904.200195
1356.61353	5924.399902
1357.147627	5929.399902
1357.681667	5900.600098
1358.215652	5879.0
1358.749582	5933.0
1359.283456	5905.600098
1359.817274	5930.799805
1360.351037	5863.600098
1360.884744	5917.200195
1361.418395	5874.200195
1361.951991	5900.600098
1362.485531	5865.799805
1363.019016	5877.799805
1363.552445	5880.799805
1364.085819	5883.799805
1364.619137	5901.399902
1365.1524	5881.200195
1365.685607	5865.600098
1366.218758	5890.600098
1366.751854	5898.600098
1367.284894	5912.799805
1367.817879	5909.399902
1368.350808	5836.600098
1368.883682	5845.799805
1369.4165	5870.799805
1369.949263	5867.600098
1370.48197	5860.600098
1371.014622	5914.399902
1371.547218	5855.0
1372.079758	5886.200195
1372.612244	5868.200195
1373.144673	5912.0
1373.677047	5836.600098
1374.209366	5859.600098
1374.741629	5819.799805
1375.273836	5811.600098
1375.805989	5822.399902
1376.338085	5893.799805
1376.870126	5819.600098
1377.402112	5828.0
1377.934042	5855.0
1378.465917	5817.200195
1378.997736	5811.600098
1379.5295	5799.0
1380.061208	5813.0
1380.592861	5792.0
1381.124459	5849.799805
1381.656	5806.200195
1382.187487	5807.0
1382.718918	5792.399902
1383.250294	5828.600098
1383.781614	5788.399902
1384.312879	5827.600098
1384.844088	5796.799805
1385.375242	5782.799805
1385.90634	5804.399902
1386.437383	5829.799805
1386.968371	5860.600098
1387.499303	5897.200195
1388.03018	6141.799805
1388.561001	7163.0
1389.091767	7608.399902
1389.622478	6253.600098
1390.153133	5851.799805
1390.683733	5780.799805
1391.214277	5802.600098
1391.744766	5767.799805
1392.2752	5769.799805
1392.805578	5743.200195
1393.335901	5765.200195
1393.866168	5779.200195
1394.396381	5771.0
1394.926537	5741.799805
1395.456639	5753.0
1395.986685	5746.0
1396.516675	5735.200195
1397.046611	5791.799805
1397.576491	5718.799805
1398.106315	5767.0
1398.636084	5724.0
1399.165798	5765.0
1399.695457	5712.200195
1400.22506	5729.200195
1400.754608	5713.0
1401.284101	5714.200195
1401.813538	5694.200195
1402.34292	5725.0
1402.872247	5727.399902
1403.401518	5724.200195
1403.930734	5728.600098
1404.459895	5709.399902
1404.989	5740.799805
1405.51805	5706.0
1406.047045	5702.200195
1406.575984	5720.200195
1407.104869	5741.600098
1407.633697	5689.399902
1408.162471	5722.399902
1408.691189	5717.0
1409.219852	5708.200195
1409.74846	5751.200195
1410.277013	5833.799805
1410.80551	5756.600098
1411.333952	5688.600098
1411.862339	5711.0
1412.39067	5642.799805
1412.918946	5683.600098
1413.447167	5618.600098
1413.975333	5676.799805
1414.503444	5647.399902
1415.031499	5676.399902
1415.559499	5691.600098
1416.087444	5658.0
1416.615333	5615.600098
1417.143167	5703.399902
1417.670947	5621.799805
1418.19867	5630.200195
1418.726339	5645.399902
1419.253952	5628.200195
1419.781511	5661.600098
1420.309014	5627.200195
1420.836461	5635.799805
1421.363854	5641.600098
1421.891191	5682.399902
1422.418474	5605.200195
1422.945701	5627.0
1423.472872	5611.0
1423.999989	5620.399902
1424.52705	5623.200195
1425.054057	5680.0
1425.581008	5648.200195
1426.107904	5676.600098
1426.634745	5636.399902
1427.16153	5607.0
1427.688261	5655.200195
1428.214936	5646.399902
1428.741556	5628.600098
1429.268121	5603.399902
1429.794631	5623.799805
1430.321085	5610.399902
1430.847485	5620.0
1431.373829	5558.0
1431.900118	5592.399902
1432.426353	5551.200195
1432.952532	5573.200195
1433.478655	5532.600098
1434.004724	5569.200195
1434.530738	5608.200195
1435.056696	5567.399902
1435.5826	5569.399902
1436.108448	5570.200195
1436.634241	5564.0
1437.159979	5557.600098
1437.685662	5601.0
1438.21129	5551.600098
1438.736863	5565.399902
1439.262381	5524.600098
1439.787843	5535.600098
1440.313251	5539.799805
1440.838603	5523.799805
1441.3639	5558.600098
1441.889143	5514.0
1442.41433	5525.399902
1442.939462	5548.600098
1443.464539	5490.399902
1443.989561	5540.399902
1444.514528	5528.600098
1445.03944	5499.0
1445.564297	5479.399902
1446.089099	5481.200195
1446.613846	5464.799805
1447.138537	5520.200195
1447.663174	5496.399902
1448.187756	5471.600098
1448.712282	5478.200195
1449.236754	5507.399902
1449.761171	5498.600098
1450.285532	5495.0
1450.809839	5498.799805
1451.33409	5477.0
1451.858287	5464.600098
1452.382428	5485.0
1452.906515	5478.0
1453.430546	5463.600098
1453.954523	5484.0
1454.478444	5440.399902
1455.002311	5464.600098
1455.526123	5485.600098
1456.049879	5472.399902
1456.573581	5453.200195
1457.097227	5449.600098
1457.620819	5458.200195
1458.144356	5446.399902
1458.667837	5446.799805
1459.191264	5431.200195
1459.714636	5461.399902
1460.237952	5441.600098
1460.761214	5419.0
1461.284421	5443.0
1461.807573	5456.399902
1462.33067	5390.399902
1462.853712	5444.0
1463.376699	5421.799805
1463.899632	5433.200195
1464.422509	5420.600098
1464.945331	5446.399902
1465.468099	5463.0
1465.990811	5410.200195
1466.513469	5443.200195
1467.036071	5389.799805
1467.558619	5417.600098
1468.081112	5407.799805
1468.60355	5459.399902
1469.125933	5387.399902
1469.648261	5411.399902
1470.170534	5401.0
1470.692752	5389.0
1471.214916	5386.0
1471.737024	5368.200195
1472.259078	5404.399902
1472.781077	5422.799805
1473.303021	5391.799805
1473.82491	5400.200195
1474.346744	5421.799805
1474.868523	5337.200195
1475.390248	5375.600098
1475.911917	5360.0
1476.433532	5360.600098
1476.955092	5377.799805
1477.476597	5375.600098
1477.998047	5373.0
1478.519442	5361.600098
1479.040783	5379.799805
1479.562068	5320.200195
1480.083299	5356.399902
1480.604475	5343.399902
1481.125596	5373.200195
1481.646663	5307.399902
1482.167674	5327.200195
1482.688631	5315.799805
1483.209533	5308.399902
1483.73038	5296.600098
1484.251172	5292.399902
1484.771909	5355.600098
1485.292592	5351.399902
1485.81322	5330.399902
1486.333793	5272.799805
1486.854311	5307.600098
1487.374775	5323.0
1487.895183	5301.600098
1488.415537	5273.600098
1488.935836	5296.200195
1489.456081	5291.399902
1489.97627	5300.399902
1490.496405	5311.200195
1491.016485	5285.399902
1491.536511	5306.600098
1492.056481	5269.799805
1492.576397	5261.0
1493.096258	5299.200195
1493.616064	5264.600098
1494.135816	5244.399902
1494.655513	5269.0
1495.175155	5257.600098
1495.694742	5212.0
1496.214274	5252.0
1496.733752	5248.399902
1497.253175	5272.600098
1497.772544	5308.600098
1498.291858	5280.0
1498.811116	5252.0
1499.330321	5251.600098
1499.84947	5252.200195
1500.368565	5283.200195
1500.887605	5265.0
1501.406591	5213.799805
1501.925521	5230.399902
1502.444397	5212.399902
1502.963219	5215.0
1503.481985	5209.399902
1504.000697	5257.799805
1504.519355	5235.600098
1505.037957	5221.799805
1505.556505	5204.399902
1506.074999	5204.0
1506.593437	5217.200195
1507.111821	5185.600098
1507.63015	5190.600098
1508.148425	5196.799805
1508.666645	5187.200195
1509.18481	5157.0
1509.702921	5152.399902
1510.220977	5180.200195
1510.738979	5182.799805
1511.256925	5217.0
1511.774817	5207.600098
1512.292655	5157.399902
1512.810438	5213.399902
1513.328166	5172.0
1513.84584	5180.799805
1514.363459	5132.600098
1514.881023	5161.0
1515.398533	5167.799805
1515.915988	5159.600098
1516.433389	5144.399902
1516.950734	5184.600098
1517.468026	5187.799805
1517.985263	5139.0
1518.502445	5196.799805
1519.019572	5147.0
1519.536645	5138.799805
1520.053664	5150.0
1520.570628	5144.399902
1521.087537	5121.0
1521.604392	5129.600098
1522.121192	5123.0
1522.637937	5153.200195
1523.154628	5137.0
1523.671265	5128.200195
1524.187847	5128.200195
1524.704374	5139.200195
1525.220847	5121.600098
1525.737265	5120.200195
1526.253629	5148.200195
1526.769938	5112.200195
1527.286192	5128.399902
1527.802392	5131.799805
1528.318538	5125.600098
1528.834629	5128.600098
1529.350666	5125.600098
1529.866648	5095.399902
1530.382575	5113.600098
1530.898448	5103.0
1531.414266	5109.799805
1531.93003	5117.799805
1532.44574	5112.399902
1532.961395	5118.799805
1533.476995	5098.399902
1533.992541	5114.200195
1534.508033	5069.600098
1535.02347	5096.600098
1535.538852	5080.200195
1536.05418	5094.799805
1536.569454	5108.0
1537.084673	5089.200195
1537.599837	5102.799805
1538.114947	5093.600098
1538.630003	5113.0
1539.145004	5065.0
1539.659951	5094.200195
1540.174843	5080.399902
1540.689681	5083.799805
1541.204465	5056.600098
1541.719194	5090.200195
1542.233868	5076.399902
1542.748488	5097.0
1543.263054	5055.200195
1543.777565	5107.799805
1544.292022	5142.0
1544.806424	5051.0
1545.320772	5099.0
1545.835066	5102.600098
1546.349305	5049.600098
1546.863489	5028.600098
1547.37762	5123.600098
1547.891696	5034.0
1548.405717	5058.600098
1548.919684	5096.799805
1549.433597	5038.200195
1549.947455	5078.799805
1550.461259	5066.0
1550.975009	5061.200195
1551.488704	5047.399902
1552.002345	5070.0
1552.515931	5057.600098
1553.029463	5037.0
1553.542941	5060.600098
1554.056364	5087.0
1554.569733	5069.0
1555.083048	5054.799805
1555.596308	5017.0
1556.109514	5042.600098
1556.622665	5060.200195
1557.135762	5031.600098
1557.648805	5046.799805
1558.161794	5043.799805
1558.674728	5035.0
1559.187608	5032.200195
1559.700433	5050.200195
1560.213205	5031.799805
1560.725921	5017.600098
1561.238584	5024.200195
1561.751192	5030.600098
1562.263746	5037.799805
1562.776246	5040.0
1563.288691	5052.399902
1563.801082	4998.0
1564.313419	5037.799805
1564.825701	4996.799805
1565.337929	5050.0
1565.850103	5047.399902
1566.362223	5050.600098
1566.874288	5019.399902
1567.386299	5044.600098
1567.898256	5031.600098
1568.410158	5002.399902
1568.922007	5002.0
1569.4338	4996.200195
1569.94554	5011.0
1570.457226	5010.399902
1570.968857	5023.399902
1571.480434	5040.399902
1571.991956	4997.600098
1572.503425	5043.0
1573.014839	4985.200195
1573.526199	5034.799805
1574.037505	5018.0
1574.548756	4994.0
1575.059953	5021.399902
1575.571096	5020.0
1576.082185	4987.799805
1576.59322	5033.600098
1577.1042	5011.0
1577.615126	4994.600098
1578.125998	5001.399902
1578.636816	4975.399902
1579.14758	4988.399902
1579.658289	4978.200195
1580.168944	4983.399902
1580.679545	4942.0
1581.190092	4990.600098
1581.700585	4975.600098
1582.211023	4943.600098
1582.721407	4982.0
1583.231737	4914.399902
1583.742013	4956.799805
1584.252235	4973.799805
1584.762403	4982.0
1585.272516	4922.200195
1585.782575	4965.0
1586.292581	4980.600098
1586.802532	4975.799805
1587.312428	4959.0
1587.822271	4941.0
1588.33206	4965.399902
1588.841794	4972.799805
1589.351474	4991.600098
1589.8611	4925.399902
1590.370672	4960.0
1590.88019	4957.600098
1591.389654	4985.799805
