 1.042452273E+03	 1.498000000E+04
 1.043018714E+03	 1.499800000E+04
 1.043585098E+03	 1.499300000E+04
 1.044151424E+03	 1.499300000E+04
 1.044717692E+03	 1.483500000E+04
 1.045283903E+03	 1.491100000E+04
 1.045850056E+03	 1.502800000E+04
 1.046416151E+03	 1.497300000E+04
 1.046982188E+03	 1.475900000E+04
 1.047548167E+03	 1.482700000E+04
 1.048114089E+03	 1.483800000E+04
 1.048679953E+03	 1.482400000E+04
 1.049245760E+03	 1.483500000E+04
 1.049811509E+03	 1.497600000E+04
 1.050377200E+03	 1.483900000E+04
 1.050942833E+03	 1.497600000E+04
 1.051508408E+03	 1.501400000E+04
 1.052073926E+03	 1.481200000E+04
 1.052639387E+03	 1.493500000E+04
 1.053204789E+03	 1.494400000E+04
 1.053770134E+03	 1.489900000E+04
 1.054335421E+03	 1.482400000E+04
 1.054900651E+03	 1.481000000E+04
 1.055465823E+03	 1.482400000E+04
 1.056030937E+03	 1.478700000E+04
 1.056595993E+03	 1.485800000E+04
 1.057160992E+03	 1.490800000E+04
 1.057725934E+03	 1.494400000E+04
 1.058290817E+03	 1.480900000E+04
 1.058855643E+03	 1.465100000E+04
 1.059420411E+03	 1.482500000E+04
 1.059985122E+03	 1.466000000E+04
 1.060549775E+03	 1.483000000E+04
 1.061114371E+03	 1.480100000E+04
 1.061678908E+03	 1.482000000E+04
 1.062243389E+03	 1.468000000E+04
 1.062807811E+03	 1.486500000E+04
 1.063372176E+03	 1.465900000E+04
 1.063936483E+03	 1.470500000E+04
 1.064500733E+03	 1.451000000E+04
 1.065064925E+03	 1.481600000E+04
 1.065629060E+03	 1.461300000E+04
 1.066193137E+03	 1.477600000E+04
 1.066757156E+03	 1.473000000E+04
 1.067321118E+03	 1.488600000E+04
 1.067885022E+03	 1.462100000E+04
 1.068448869E+03	 1.472400000E+04
 1.069012658E+03	 1.475500000E+04
 1.069576390E+03	 1.462000000E+04
 1.070140063E+03	 1.469000000E+04
 1.070703680E+03	 1.463200000E+04
 1.071267239E+03	 1.465000000E+04
 1.071830740E+03	 1.480400000E+04
 1.072394184E+03	 1.459700000E+04
 1.072957570E+03	 1.457700000E+04
 1.073520899E+03	 1.462900000E+04
 1.074084170E+03	 1.461900000E+04
 1.074647383E+03	 1.446400000E+04
 1.075210540E+03	 1.464300000E+04
 1.075773638E+03	 1.427000000E+04
 1.076336679E+03	 1.466500000E+04
 1.076899663E+03	 1.448900000E+04
 1.077462589E+03	 1.468300000E+04
 1.078025457E+03	 1.442600000E+04
 1.078588268E+03	 1.461300000E+04
 1.079151022E+03	 1.437500000E+04
 1.079713718E+03	 1.444900000E+04
 1.080276356E+03	 1.444500000E+04
 1.080838937E+03	 1.438900000E+04
 1.081401461E+03	 1.438900000E+04
 1.081963927E+03	 1.451300000E+04
 1.082526336E+03	 1.433100000E+04
 1.083088687E+03	 1.454300000E+04
 1.083650981E+03	 1.438900000E+04
 1.084213217E+03	 1.448900000E+04
 1.084775396E+03	 1.427500000E+04
 1.085337517E+03	 1.450800000E+04
 1.085899581E+03	 1.421500000E+04
 1.086461587E+03	 1.435200000E+04
 1.087023536E+03	 1.417800000E+04
 1.087585428E+03	 1.439200000E+04
 1.088147262E+03	 1.419600000E+04
 1.088709039E+03	 1.429800000E+04
 1.089270758E+03	 1.416200000E+04
 1.089832420E+03	 1.433600000E+04
 1.090394024E+03	 1.411300000E+04
 1.090955571E+03	 1.416900000E+04
 1.091517061E+03	 1.406500000E+04
 1.092078493E+03	 1.432100000E+04
 1.092639868E+03	 1.410400000E+04
 1.093201185E+03	 1.419100000E+04
 1.093762445E+03	 1.415400000E+04
 1.094323648E+03	 1.417300000E+04
 1.094884793E+03	 1.413500000E+04
 1.095445881E+03	 1.426400000E+04
 1.096006911E+03	 1.396200000E+04
 1.096567884E+03	 1.411800000E+04
 1.097128800E+03	 1.391500000E+04
 1.097689659E+03	 1.405100000E+04
 1.098250460E+03	 1.388800000E+04
 1.098811203E+03	 1.395500000E+04
 1.099371890E+03	 1.401200000E+04
 1.099932518E+03	 1.411400000E+04
 1.100493090E+03	 1.390500000E+04
 1.101053604E+03	 1.399900000E+04
 1.101614061E+03	 1.393900000E+04
 1.102174461E+03	 1.394100000E+04
 1.102734803E+03	 1.360100000E+04
 1.103295088E+03	 1.417200000E+04
 1.103855316E+03	 1.377500000E+04
 1.104415486E+03	 1.398600000E+04
 1.104975599E+03	 1.367600000E+04
 1.105535655E+03	 1.390800000E+04
 1.106095653E+03	 1.374300000E+04
 1.106655594E+03	 1.383200000E+04
 1.107215478E+03	 1.384700000E+04
 1.107775305E+03	 1.390500000E+04
 1.108335074E+03	 1.363000000E+04
 1.108894786E+03	 1.373300000E+04
 1.109454440E+03	 1.367200000E+04
 1.110014038E+03	 1.377900000E+04
 1.110573578E+03	 1.365100000E+04
 1.111133061E+03	 1.367900000E+04
 1.111692486E+03	 1.365400000E+04
 1.112251854E+03	 1.377900000E+04
 1.112811165E+03	 1.355700000E+04
 1.113370419E+03	 1.371100000E+04
 1.113929616E+03	 1.372000000E+04
 1.114488755E+03	 1.368100000E+04
 1.115047837E+03	 1.358100000E+04
 1.115606862E+03	 1.376800000E+04
 1.116165830E+03	 1.378300000E+04
 1.116724740E+03	 1.380700000E+04
 1.117283593E+03	 1.356200000E+04
 1.117842389E+03	 1.379800000E+04
 1.118401128E+03	 1.362000000E+04
 1.118959809E+03	 1.364000000E+04
 1.119518433E+03	 1.355200000E+04
 1.120077000E+03	 1.365700000E+04
 1.120635510E+03	 1.359800000E+04
 1.121193963E+03	 1.362400000E+04
 1.121752358E+03	 1.359800000E+04
 1.122310697E+03	 1.379200000E+04
 1.122868978E+03	 1.364100000E+04
 1.123427202E+03	 1.355600000E+04
 1.123985368E+03	 1.354400000E+04
 1.124543478E+03	 1.362000000E+04
 1.125101530E+03	 1.342300000E+04
 1.125659526E+03	 1.353100000E+04
 1.126217464E+03	 1.352900000E+04
 1.126775345E+03	 1.347500000E+04
 1.127333168E+03	 1.344700000E+04
 1.127890935E+03	 1.355900000E+04
 1.128448644E+03	 1.357500000E+04
 1.129006297E+03	 1.355900000E+04
 1.129563892E+03	 1.340900000E+04
 1.130121430E+03	 1.358700000E+04
 1.130678911E+03	 1.346300000E+04
 1.131236335E+03	 1.355500000E+04
 1.131793701E+03	 1.353000000E+04
 1.132351011E+03	 1.348900000E+04
 1.132908263E+03	 1.348000000E+04
 1.133465458E+03	 1.344400000E+04
 1.134022597E+03	 1.348300000E+04
 1.134579678E+03	 1.340200000E+04
 1.135136702E+03	 1.330900000E+04
 1.135693669E+03	 1.358800000E+04
 1.136250578E+03	 1.343200000E+04
 1.136807431E+03	 1.354700000E+04
 1.137364227E+03	 1.347400000E+04
 1.137920965E+03	 1.344500000E+04
 1.138477647E+03	 1.339900000E+04
 1.139034271E+03	 1.345500000E+04
 1.139590839E+03	 1.346900000E+04
 1.140147349E+03	 1.340000000E+04
 1.140703802E+03	 1.329700000E+04
 1.141260198E+03	 1.343100000E+04
 1.141816537E+03	 1.332000000E+04
 1.142372820E+03	 1.351300000E+04
 1.142929045E+03	 1.347600000E+04
 1.143485213E+03	 1.333900000E+04
 1.144041323E+03	 1.336500000E+04
 1.144597377E+03	 1.342400000E+04
 1.145153374E+03	 1.339400000E+04
 1.145709314E+03	 1.325100000E+04
 1.146265197E+03	 1.340000000E+04
 1.146821023E+03	 1.334500000E+04
 1.147376792E+03	 1.340400000E+04
 1.147932503E+03	 1.345900000E+04
 1.148488158E+03	 1.334300000E+04
 1.149043756E+03	 1.328000000E+04
 1.149599297E+03	 1.359000000E+04
 1.150154781E+03	 1.335500000E+04
 1.150710207E+03	 1.337200000E+04
 1.151265577E+03	 1.344200000E+04
 1.151820890E+03	 1.340800000E+04
 1.152376146E+03	 1.338400000E+04
 1.152931345E+03	 1.337500000E+04
 1.153486487E+03	 1.333200000E+04
 1.154041572E+03	 1.344200000E+04
 1.154596600E+03	 1.325900000E+04
 1.155151571E+03	 1.323200000E+04
 1.155706485E+03	 1.348400000E+04
 1.156261342E+03	 1.336700000E+04
 1.156816142E+03	 1.342900000E+04
 1.157370885E+03	 1.346100000E+04
 1.157925572E+03	 1.328900000E+04
 1.158480201E+03	 1.354900000E+04
 1.159034774E+03	 1.344500000E+04
 1.159589289E+03	 1.347000000E+04
 1.160143748E+03	 1.343900000E+04
 1.160698149E+03	 1.348000000E+04
 1.161252494E+03	 1.338300000E+04
 1.161806782E+03	 1.351500000E+04
 1.162361013E+03	 1.340300000E+04
 1.162915187E+03	 1.320300000E+04
 1.163469304E+03	 1.339300000E+04
 1.164023364E+03	 1.331400000E+04
 1.164577368E+03	 1.336700000E+04
 1.165131314E+03	 1.323100000E+04
 1.165685204E+03	 1.326400000E+04
 1.166239036E+03	 1.344800000E+04
 1.166792812E+03	 1.334200000E+04
 1.167346531E+03	 1.331500000E+04
 1.167900193E+03	 1.329600000E+04
 1.168453798E+03	 1.329700000E+04
 1.169007347E+03	 1.330800000E+04
 1.169560838E+03	 1.311600000E+04
 1.170114273E+03	 1.330400000E+04
 1.170667650E+03	 1.325700000E+04
 1.171220971E+03	 1.326700000E+04
 1.171774235E+03	 1.324900000E+04
 1.172327443E+03	 1.327100000E+04
 1.172880593E+03	 1.325800000E+04
 1.173433687E+03	 1.326800000E+04
 1.173986723E+03	 1.317200000E+04
 1.174539703E+03	 1.331900000E+04
 1.175092626E+03	 1.324900000E+04
 1.175645493E+03	 1.317200000E+04
 1.176198302E+03	 1.323500000E+04
 1.176751055E+03	 1.330200000E+04
 1.177303751E+03	 1.305500000E+04
 1.177856390E+03	 1.335600000E+04
 1.178408972E+03	 1.322300000E+04
 1.178961498E+03	 1.316700000E+04
 1.179513966E+03	 1.314500000E+04
 1.180066378E+03	 1.323600000E+04
 1.180618733E+03	 1.320400000E+04
 1.181171032E+03	 1.319100000E+04
 1.181723273E+03	 1.303800000E+04
 1.182275458E+03	 1.317900000E+04
 1.182827586E+03	 1.302900000E+04
 1.183379657E+03	 1.325600000E+04
 1.183931672E+03	 1.325000000E+04
 1.184483630E+03	 1.301900000E+04
 1.185035531E+03	 1.314200000E+04
 1.185587375E+03	 1.315900000E+04
 1.186139162E+03	 1.321300000E+04
 1.186690893E+03	 1.315500000E+04
 1.187242567E+03	 1.298300000E+04
 1.187794184E+03	 1.307900000E+04
 1.188345745E+03	 1.307900000E+04
 1.188897249E+03	 1.312500000E+04
 1.189448696E+03	 1.303800000E+04
 1.190000086E+03	 1.300900000E+04
 1.190551420E+03	 1.298700000E+04
 1.191102697E+03	 1.308500000E+04
 1.191653918E+03	 1.300300000E+04
 1.192205081E+03	 1.316900000E+04
 1.192756188E+03	 1.296000000E+04
 1.193307238E+03	 1.300400000E+04
 1.193858232E+03	 1.306800000E+04
 1.194409169E+03	 1.297300000E+04
 1.194960049E+03	 1.302600000E+04
 1.195510872E+03	 1.299500000E+04
 1.196061639E+03	 1.291400000E+04
 1.196612349E+03	 1.292200000E+04
 1.197163003E+03	 1.283500000E+04
 1.197713599E+03	 1.310300000E+04
 1.198264139E+03	 1.292400000E+04
 1.198814623E+03	 1.294500000E+04
 1.199365050E+03	 1.291700000E+04
 1.199915420E+03	 1.297000000E+04
 1.200465734E+03	 1.305900000E+04
 1.201015990E+03	 1.293000000E+04
 1.201566191E+03	 1.294200000E+04
 1.202116334E+03	 1.280500000E+04
 1.202666421E+03	 1.286700000E+04
 1.203216452E+03	 1.284700000E+04
 1.203766425E+03	 1.290800000E+04
 1.204316343E+03	 1.291200000E+04
 1.204866203E+03	 1.291600000E+04
 1.205416007E+03	 1.289100000E+04
 1.205965754E+03	 1.280100000E+04
 1.206515445E+03	 1.283200000E+04
 1.207065079E+03	 1.284600000E+04
 1.207614657E+03	 1.274900000E+04
 1.208164177E+03	 1.273400000E+04
 1.208713642E+03	 1.273200000E+04
 1.209263050E+03	 1.285300000E+04
 1.209812401E+03	 1.275600000E+04
 1.210361695E+03	 1.268700000E+04
 1.210910933E+03	 1.279800000E+04
 1.211460115E+03	 1.277600000E+04
 1.212009240E+03	 1.275100000E+04
 1.212558308E+03	 1.273800000E+04
 1.213107320E+03	 1.264800000E+04
 1.213656275E+03	 1.282600000E+04
 1.214205174E+03	 1.273100000E+04
 1.214754016E+03	 1.260800000E+04
 1.215302801E+03	 1.272600000E+04
 1.215851530E+03	 1.257900000E+04
 1.216400203E+03	 1.283800000E+04
 1.216948819E+03	 1.267500000E+04
 1.217497378E+03	 1.262200000E+04
 1.218045881E+03	 1.265100000E+04
 1.218594327E+03	 1.260700000E+04
 1.219142717E+03	 1.265100000E+04
 1.219691051E+03	 1.269100000E+04
 1.220239327E+03	 1.271800000E+04
 1.220787548E+03	 1.261400000E+04
 1.221335712E+03	 1.252600000E+04
 1.221883819E+03	 1.261800000E+04
 1.222431870E+03	 1.270100000E+04
 1.222979864E+03	 1.253700000E+04
 1.223527802E+03	 1.250700000E+04
 1.224075683E+03	 1.250000000E+04
 1.224623508E+03	 1.265700000E+04
 1.225171277E+03	 1.258300000E+04
 1.225718989E+03	 1.245700000E+04
 1.226266644E+03	 1.260100000E+04
 1.226814243E+03	 1.259200000E+04
 1.227361786E+03	 1.247400000E+04
 1.227909272E+03	 1.257900000E+04
 1.228456702E+03	 1.249700000E+04
 1.229004075E+03	 1.260900000E+04
 1.229551392E+03	 1.256800000E+04
 1.230098652E+03	 1.245800000E+04
 1.230645856E+03	 1.246900000E+04
 1.231193003E+03	 1.262800000E+04
 1.231740094E+03	 1.260500000E+04
 1.232287129E+03	 1.265000000E+04
 1.232834107E+03	 1.256600000E+04
 1.233381029E+03	 1.264300000E+04
 1.233927894E+03	 1.261600000E+04
 1.234474703E+03	 1.251000000E+04
 1.235021455E+03	 1.268200000E+04
 1.235568151E+03	 1.249400000E+04
 1.236114791E+03	 1.252000000E+04
 1.236661374E+03	 1.258800000E+04
 1.237207901E+03	 1.252400000E+04
 1.237754372E+03	 1.244900000E+04
 1.238300786E+03	 1.242700000E+04
 1.238847144E+03	 1.246000000E+04
 1.239393445E+03	 1.248800000E+04
 1.239939690E+03	 1.241300000E+04
 1.240485879E+03	 1.250000000E+04
 1.241032011E+03	 1.247100000E+04
 1.241578087E+03	 1.244800000E+04
 1.242124106E+03	 1.238400000E+04
 1.242670070E+03	 1.240500000E+04
 1.243215976E+03	 1.233200000E+04
 1.243761827E+03	 1.235200000E+04
 1.244307621E+03	 1.242700000E+04
 1.244853359E+03	 1.236300000E+04
 1.245399040E+03	 1.234300000E+04
 1.245944665E+03	 1.245000000E+04
 1.246490234E+03	 1.230200000E+04
 1.247035746E+03	 1.233900000E+04
 1.247581203E+03	 1.235900000E+04
 1.248126602E+03	 1.250600000E+04
 1.248671946E+03	 1.230300000E+04
 1.249217233E+03	 1.235700000E+04
 1.249762464E+03	 1.242000000E+04
 1.250307638E+03	 1.238400000E+04
 1.250852757E+03	 1.228000000E+04
 1.251397819E+03	 1.239900000E+04
 1.251942824E+03	 1.238900000E+04
 1.252487774E+03	 1.233100000E+04
 1.253032667E+03	 1.233400000E+04
 1.253577503E+03	 1.240300000E+04
 1.254122284E+03	 1.228100000E+04
 1.254667008E+03	 1.221100000E+04
 1.255211676E+03	 1.237100000E+04
 1.255756288E+03	 1.239400000E+04
 1.256300843E+03	 1.223200000E+04
 1.256845342E+03	 1.223900000E+04
 1.257389785E+03	 1.223900000E+04
 1.257934172E+03	 1.217100000E+04
 1.258478502E+03	 1.228900000E+04
 1.259022776E+03	 1.222900000E+04
 1.259566994E+03	 1.236700000E+04
 1.260111156E+03	 1.214900000E+04
 1.260655261E+03	 1.237800000E+04
 1.261199311E+03	 1.212800000E+04
 1.261743304E+03	 1.222000000E+04
 1.262287240E+03	 1.223300000E+04
 1.262831121E+03	 1.225500000E+04
 1.263374945E+03	 1.227000000E+04
 1.263918713E+03	 1.212300000E+04
 1.264462425E+03	 1.224800000E+04
 1.265006081E+03	 1.216600000E+04
 1.265549680E+03	 1.210500000E+04
 1.266093223E+03	 1.211800000E+04
 1.266636711E+03	 1.225200000E+04
 1.267180141E+03	 1.223500000E+04
 1.267723516E+03	 1.223800000E+04
 1.268266835E+03	 1.217800000E+04
 1.268810097E+03	 1.230900000E+04
 1.269353303E+03	 1.214700000E+04
 1.269896453E+03	 1.212100000E+04
 1.270439547E+03	 1.209900000E+04
 1.270982584E+03	 1.216900000E+04
 1.271525566E+03	 1.218400000E+04
 1.272068491E+03	 1.224800000E+04
 1.272611360E+03	 1.222100000E+04
 1.273154173E+03	 1.216900000E+04
 1.273696930E+03	 1.205000000E+04
 1.274239631E+03	 1.215000000E+04
 1.274782275E+03	 1.212900000E+04
 1.275324864E+03	 1.212300000E+04
 1.275867396E+03	 1.209500000E+04
 1.276409872E+03	 1.219900000E+04
 1.276952292E+03	 1.210000000E+04
 1.277494656E+03	 1.220000000E+04
 1.278036964E+03	 1.207700000E+04
 1.278579215E+03	 1.200400000E+04
 1.279121411E+03	 1.214500000E+04
 1.279663550E+03	 1.209400000E+04
 1.280205634E+03	 1.192600000E+04
 1.280747661E+03	 1.203100000E+04
 1.281289632E+03	 1.215600000E+04
 1.281831547E+03	 1.191600000E+04
 1.282373406E+03	 1.198900000E+04
 1.282915209E+03	 1.208900000E+04
 1.283456955E+03	 1.195600000E+04
 1.283998646E+03	 1.194500000E+04
 1.284540281E+03	 1.187200000E+04
 1.285081859E+03	 1.203800000E+04
 1.285623381E+03	 1.200900000E+04
 1.286164848E+03	 1.211000000E+04
 1.286706258E+03	 1.191400000E+04
 1.287247612E+03	 1.199700000E+04
 1.287788911E+03	 1.182900000E+04
 1.288330153E+03	 1.183500000E+04
 1.288871339E+03	 1.186600000E+04
 1.289412469E+03	 1.203200000E+04
 1.289953543E+03	 1.190000000E+04
 1.290494561E+03	 1.201100000E+04
 1.291035523E+03	 1.188900000E+04
 1.291576428E+03	 1.185200000E+04
 1.292117278E+03	 1.190200000E+04
 1.292658072E+03	 1.192100000E+04
 1.293198810E+03	 1.192200000E+04
 1.293739492E+03	 1.193200000E+04
 1.294280118E+03	 1.176500000E+04
 1.294820687E+03	 1.177000000E+04
 1.295361201E+03	 1.181800000E+04
 1.295901659E+03	 1.168900000E+04
 1.296442061E+03	 1.187500000E+04
 1.296982406E+03	 1.179700000E+04
 1.297522696E+03	 1.184200000E+04
 1.298062930E+03	 1.194900000E+04
 1.298603108E+03	 1.182800000E+04
 1.299143229E+03	 1.178300000E+04
 1.299683295E+03	 1.191700000E+04
 1.300223305E+03	 1.198300000E+04
 1.300763259E+03	 1.182000000E+04
 1.301303157E+03	 1.167700000E+04
 1.301842999E+03	 1.186000000E+04
 1.302382785E+03	 1.181800000E+04
 1.302922515E+03	 1.176600000E+04
 1.303462189E+03	 1.183000000E+04
 1.304001807E+03	 1.177100000E+04
 1.304541369E+03	 1.183200000E+04
 1.305080875E+03	 1.171200000E+04
 1.305620326E+03	 1.177400000E+04
 1.306159720E+03	 1.182300000E+04
 1.306699058E+03	 1.183700000E+04
 1.307238341E+03	 1.169000000E+04
 1.307777567E+03	 1.181500000E+04
 1.308316738E+03	 1.176000000E+04
 1.308855853E+03	 1.182500000E+04
 1.309394912E+03	 1.167300000E+04
 1.309933915E+03	 1.174100000E+04
 1.310472862E+03	 1.164300000E+04
 1.311011753E+03	 1.196200000E+04
 1.311550588E+03	 1.166700000E+04
 1.312089367E+03	 1.174600000E+04
 1.312628090E+03	 1.165300000E+04
 1.313166758E+03	 1.171200000E+04
 1.313705370E+03	 1.157900000E+04
 1.314243925E+03	 1.170600000E+04
 1.314782425E+03	 1.160500000E+04
 1.315320869E+03	 1.162400000E+04
 1.315859257E+03	 1.164200000E+04
 1.316397589E+03	 1.178800000E+04
 1.316935866E+03	 1.173800000E+04
 1.317474086E+03	 1.153400000E+04
 1.318012251E+03	 1.164000000E+04
 1.318550360E+03	 1.140300000E+04
 1.319088413E+03	 1.160200000E+04
 1.319626410E+03	 1.151800000E+04
 1.320164351E+03	 1.156800000E+04
 1.320702236E+03	 1.156200000E+04
 1.321240066E+03	 1.157200000E+04
 1.321777839E+03	 1.165200000E+04
 1.322315557E+03	 1.162100000E+04
 1.322853219E+03	 1.153500000E+04
 1.323390826E+03	 1.160400000E+04
 1.323928376E+03	 1.140700000E+04
 1.324465871E+03	 1.158900000E+04
 1.325003309E+03	 1.159500000E+04
 1.325540692E+03	 1.153700000E+04
 1.326078020E+03	 1.154900000E+04
 1.326615291E+03	 1.151700000E+04
 1.327152506E+03	 1.154800000E+04
 1.327689666E+03	 1.156900000E+04
 1.328226770E+03	 1.154800000E+04
 1.328763818E+03	 1.145800000E+04
 1.329300811E+03	 1.151100000E+04
 1.329837747E+03	 1.155600000E+04
 1.330374628E+03	 1.153300000E+04
 1.330911453E+03	 1.159600000E+04
 1.331448222E+03	 1.153400000E+04
 1.331984936E+03	 1.137100000E+04
 1.332521594E+03	 1.142800000E+04
 1.333058196E+03	 1.153900000E+04
 1.333594742E+03	 1.151900000E+04
 1.334131232E+03	 1.146700000E+04
 1.334667667E+03	 1.152300000E+04
 1.335204046E+03	 1.146800000E+04
 1.335740369E+03	 1.147200000E+04
 1.336276637E+03	 1.146100000E+04
 1.336812848E+03	 1.155600000E+04
 1.337349004E+03	 1.144600000E+04
 1.337885105E+03	 1.154200000E+04
 1.338421149E+03	 1.152700000E+04
 1.338957138E+03	 1.155500000E+04
 1.339493071E+03	 1.142400000E+04
 1.340028949E+03	 1.139500000E+04
 1.340564770E+03	 1.145100000E+04
 1.341100536E+03	 1.139900000E+04
 1.341636246E+03	 1.136800000E+04
 1.342171901E+03	 1.131200000E+04
 1.342707500E+03	 1.136300000E+04
 1.343243043E+03	 1.143800000E+04
 1.343778530E+03	 1.138300000E+04
 1.344313962E+03	 1.141000000E+04
 1.344849338E+03	 1.129300000E+04
 1.345384659E+03	 1.137200000E+04
 1.345919923E+03	 1.125600000E+04
 1.346455133E+03	 1.142700000E+04
 1.346990286E+03	 1.138300000E+04
 1.347525384E+03	 1.135800000E+04
 1.348060426E+03	 1.133100000E+04
 1.348595412E+03	 1.148300000E+04
 1.349130343E+03	 1.142800000E+04
 1.349665218E+03	 1.134900000E+04
 1.350200037E+03	 1.143000000E+04
 1.350734801E+03	 1.137300000E+04
 1.351269509E+03	 1.128600000E+04
 1.351804162E+03	 1.135800000E+04
 1.352338758E+03	 1.138000000E+04
 1.352873300E+03	 1.142400000E+04
 1.353407785E+03	 1.130500000E+04
 1.353942215E+03	 1.130000000E+04
 1.354476589E+03	 1.127200000E+04
 1.355010908E+03	 1.125100000E+04
 1.355545171E+03	 1.119000000E+04
 1.356079379E+03	 1.130700000E+04
 1.356613530E+03	 1.126900000E+04
 1.357147627E+03	 1.128200000E+04
 1.357681667E+03	 1.119400000E+04
 1.358215652E+03	 1.123500000E+04
 1.358749582E+03	 1.124300000E+04
 1.359283456E+03	 1.121300000E+04
 1.359817274E+03	 1.119100000E+04
 1.360351037E+03	 1.120500000E+04
 1.360884744E+03	 1.124000000E+04
 1.361418395E+03	 1.113000000E+04
 1.361951991E+03	 1.127600000E+04
 1.362485531E+03	 1.118400000E+04
 1.363019016E+03	 1.136700000E+04
 1.363552445E+03	 1.109500000E+04
 1.364085819E+03	 1.114300000E+04
 1.364619137E+03	 1.120700000E+04
 1.365152400E+03	 1.121100000E+04
 1.365685607E+03	 1.125700000E+04
 1.366218758E+03	 1.122700000E+04
 1.366751854E+03	 1.115600000E+04
 1.367284894E+03	 1.104600000E+04
 1.367817879E+03	 1.106400000E+04
 1.368350808E+03	 1.108000000E+04
 1.368883682E+03	 1.121000000E+04
 1.369416500E+03	 1.102900000E+04
 1.369949263E+03	 1.120700000E+04
 1.370481970E+03	 1.108300000E+04
 1.371014622E+03	 1.117800000E+04
 1.371547218E+03	 1.113000000E+04
 1.372079758E+03	 1.101700000E+04
 1.372612244E+03	 1.112800000E+04
 1.373144673E+03	 1.101500000E+04
 1.373677047E+03	 1.106600000E+04
 1.374209366E+03	 1.109400000E+04
 1.374741629E+03	 1.117800000E+04
 1.375273836E+03	 1.112000000E+04
 1.375805989E+03	 1.103900000E+04
 1.376338085E+03	 1.116300000E+04
 1.376870126E+03	 1.104200000E+04
 1.377402112E+03	 1.106200000E+04
 1.377934042E+03	 1.103000000E+04
 1.378465917E+03	 1.102800000E+04
 1.378997736E+03	 1.119100000E+04
 1.379529500E+03	 1.104600000E+04
 1.380061208E+03	 1.115300000E+04
 1.380592861E+03	 1.098400000E+04
 1.381124459E+03	 1.108900000E+04
 1.381656000E+03	 1.104000000E+04
 1.382187487E+03	 1.116500000E+04
 1.382718918E+03	 1.099000000E+04
 1.383250294E+03	 1.110800000E+04
 1.383781614E+03	 1.091400000E+04
 1.384312879E+03	 1.102800000E+04
 1.384844088E+03	 1.091300000E+04
 1.385375242E+03	 1.105700000E+04
 1.385906340E+03	 1.097900000E+04
 1.386437383E+03	 1.093500000E+04
 1.386968371E+03	 1.102600000E+04
 1.387499303E+03	 1.093300000E+04
 1.388030180E+03	 1.109300000E+04
 1.388561001E+03	 1.102500000E+04
 1.389091767E+03	 1.113000000E+04
 1.389622478E+03	 1.101600000E+04
 1.390153133E+03	 1.110800000E+04
 1.390683733E+03	 1.102200000E+04
 1.391214277E+03	 1.103400000E+04
 1.391744766E+03	 1.099500000E+04
 1.392275200E+03	 1.088500000E+04
 1.392805578E+03	 1.090900000E+04
 1.393335901E+03	 1.093300000E+04
 1.393866168E+03	 1.093700000E+04
 1.394396381E+03	 1.089200000E+04
 1.394926537E+03	 1.090600000E+04
 1.395456639E+03	 1.087700000E+04
 1.395986685E+03	 1.095800000E+04
 1.396516675E+03	 1.090700000E+04
 1.397046611E+03	 1.087700000E+04
 1.397576491E+03	 1.086600000E+04
 1.398106315E+03	 1.084500000E+04
 1.398636084E+03	 1.093400000E+04
 1.399165798E+03	 1.087800000E+04
 1.399695457E+03	 1.101000000E+04
 1.400225060E+03	 1.095500000E+04
 1.400754608E+03	 1.087700000E+04
 1.401284101E+03	 1.095300000E+04
 1.401813538E+03	 1.093100000E+04
 1.402342920E+03	 1.077800000E+04
 1.402872247E+03	 1.084100000E+04
 1.403401518E+03	 1.078500000E+04
 1.403930734E+03	 1.081800000E+04
 1.404459895E+03	 1.085300000E+04
 1.404989000E+03	 1.103300000E+04
 1.405518050E+03	 1.084300000E+04
 1.406047045E+03	 1.087300000E+04
 1.406575984E+03	 1.084800000E+04
 1.407104869E+03	 1.090200000E+04
 1.407633697E+03	 1.074900000E+04
 1.408162471E+03	 1.087500000E+04
 1.408691189E+03	 1.079100000E+04
 1.409219852E+03	 1.080900000E+04
 1.409748460E+03	 1.071200000E+04
 1.410277013E+03	 1.093200000E+04
 1.410805510E+03	 1.092600000E+04
 1.411333952E+03	 1.078400000E+04
 1.411862339E+03	 1.081900000E+04
 1.412390670E+03	 1.088600000E+04
 1.412918946E+03	 1.094700000E+04
 1.413447167E+03	 1.089400000E+04
 1.413975333E+03	 1.082800000E+04
 1.414503444E+03	 1.097200000E+04
 1.415031499E+03	 1.084600000E+04
 1.415559499E+03	 1.081000000E+04
 1.416087444E+03	 1.077300000E+04
 1.416615333E+03	 1.083500000E+04
 1.417143167E+03	 1.073200000E+04
 1.417670947E+03	 1.071600000E+04
 1.418198670E+03	 1.076100000E+04
 1.418726339E+03	 1.077100000E+04
 1.419253952E+03	 1.083200000E+04
 1.419781511E+03	 1.078600000E+04
 1.420309014E+03	 1.078600000E+04
 1.420836461E+03	 1.091600000E+04
 1.421363854E+03	 1.072600000E+04
 1.421891191E+03	 1.071800000E+04
 1.422418474E+03	 1.069300000E+04
 1.422945701E+03	 1.082500000E+04
 1.423472872E+03	 1.078800000E+04
 1.423999989E+03	 1.072600000E+04
 1.424527050E+03	 1.070700000E+04
 1.425054057E+03	 1.069900000E+04
 1.425581008E+03	 1.083300000E+04
 1.426107904E+03	 1.084200000E+04
 1.426634745E+03	 1.068300000E+04
 1.427161530E+03	 1.057800000E+04
 1.427688261E+03	 1.077600000E+04
 1.428214936E+03	 1.071300000E+04
 1.428741556E+03	 1.067700000E+04
 1.429268121E+03	 1.083600000E+04
 1.429794631E+03	 1.070400000E+04
 1.430321085E+03	 1.075800000E+04
 1.430847485E+03	 1.080600000E+04
 1.431373829E+03	 1.069300000E+04
 1.431900118E+03	 1.076000000E+04
 1.432426353E+03	 1.055000000E+04
 1.432952532E+03	 1.075900000E+04
 1.433478655E+03	 1.076100000E+04
 1.434004724E+03	 1.067500000E+04
 1.434530738E+03	 1.057000000E+04
 1.435056696E+03	 1.068300000E+04
 1.435582600E+03	 1.065000000E+04
 1.436108448E+03	 1.050200000E+04
 1.436634241E+03	 1.070000000E+04
 1.437159979E+03	 1.057900000E+04
 1.437685662E+03	 1.052300000E+04
 1.438211290E+03	 1.065200000E+04
 1.438736863E+03	 1.066800000E+04
 1.439262381E+03	 1.062400000E+04
 1.439787843E+03	 1.061100000E+04
 1.440313251E+03	 1.072000000E+04
 1.440838603E+03	 1.056800000E+04
 1.441363900E+03	 1.068100000E+04
 1.441889143E+03	 1.056700000E+04
 1.442414330E+03	 1.066800000E+04
 1.442939462E+03	 1.058600000E+04
 1.443464539E+03	 1.067200000E+04
 1.443989561E+03	 1.054600000E+04
 1.444514528E+03	 1.061000000E+04
 1.445039440E+03	 1.051500000E+04
 1.445564297E+03	 1.049700000E+04
 1.446089099E+03	 1.064200000E+04
 1.446613846E+03	 1.044800000E+04
 1.447138537E+03	 1.052700000E+04
 1.447663174E+03	 1.044800000E+04
 1.448187756E+03	 1.050900000E+04
 1.448712282E+03	 1.054900000E+04
 1.449236754E+03	 1.051000000E+04
 1.449761171E+03	 1.045300000E+04
 1.450285532E+03	 1.054300000E+04
 1.450809839E+03	 1.065700000E+04
 1.451334090E+03	 1.049100000E+04
 1.451858287E+03	 1.044000000E+04
 1.452382428E+03	 1.040300000E+04
 1.452906515E+03	 1.059500000E+04
 1.453430546E+03	 1.049900000E+04
 1.453954523E+03	 1.054100000E+04
 1.454478444E+03	 1.045800000E+04
 1.455002311E+03	 1.048300000E+04
 1.455526123E+03	 1.045700000E+04
 1.456049879E+03	 1.060900000E+04
 1.456573581E+03	 1.059600000E+04
 1.457097227E+03	 1.051100000E+04
 1.457620819E+03	 1.057600000E+04
 1.458144356E+03	 1.042000000E+04
 1.458667837E+03	 1.048300000E+04
 1.459191264E+03	 1.054100000E+04
 1.459714636E+03	 1.061500000E+04
 1.460237952E+03	 1.041600000E+04
 1.460761214E+03	 1.056800000E+04
 1.461284421E+03	 1.051100000E+04
 1.461807573E+03	 1.048700000E+04
 1.462330670E+03	 1.050700000E+04
 1.462853712E+03	 1.030200000E+04
 1.463376699E+03	 1.038900000E+04
 1.463899632E+03	 1.048700000E+04
 1.464422509E+03	 1.051800000E+04
 1.464945331E+03	 1.029200000E+04
 1.465468099E+03	 1.041600000E+04
 1.465990811E+03	 1.033100000E+04
 1.466513469E+03	 1.041500000E+04
 1.467036071E+03	 1.032700000E+04
 1.467558619E+03	 1.030100000E+04
 1.468081112E+03	 1.041900000E+04
 1.468603550E+03	 1.045600000E+04
 1.469125933E+03	 1.040400000E+04
 1.469648261E+03	 1.043900000E+04
 1.470170534E+03	 1.036800000E+04
 1.470692752E+03	 1.035700000E+04
 1.471214916E+03	 1.023900000E+04
 1.471737024E+03	 1.028400000E+04
 1.472259078E+03	 1.036600000E+04
 1.472781077E+03	 1.031700000E+04
 1.473303021E+03	 1.036200000E+04
 1.473824910E+03	 1.034100000E+04
 1.474346744E+03	 1.031900000E+04
 1.474868523E+03	 1.015200000E+04
 1.475390248E+03	 1.030600000E+04
 1.475911917E+03	 1.022900000E+04
 1.476433532E+03	 1.021100000E+04
 1.476955092E+03	 1.023200000E+04
 1.477476597E+03	 1.026900000E+04
 1.477998047E+03	 1.027300000E+04
 1.478519442E+03	 1.019200000E+04
 1.479040783E+03	 1.027500000E+04
 1.479562068E+03	 1.031900000E+04
 1.480083299E+03	 1.027000000E+04
 1.480604475E+03	 1.020900000E+04
 1.481125596E+03	 1.022900000E+04
 1.481646663E+03	 1.008200000E+04
 1.482167674E+03	 1.030700000E+04
 1.482688631E+03	 1.019400000E+04
 1.483209533E+03	 1.021600000E+04
 1.483730380E+03	 1.030100000E+04
 1.484251172E+03	 1.017400000E+04
 1.484771909E+03	 1.023800000E+04
 1.485292592E+03	 1.029800000E+04
 1.485813220E+03	 1.014200000E+04
 1.486333793E+03	 1.013400000E+04
 1.486854311E+03	 1.020900000E+04
 1.487374775E+03	 1.012300000E+04
 1.487895183E+03	 1.022000000E+04
 1.488415537E+03	 1.015700000E+04
 1.488935836E+03	 1.021600000E+04
 1.489456081E+03	 1.022500000E+04
 1.489976270E+03	 1.010800000E+04
 1.490496405E+03	 1.025800000E+04
 1.491016485E+03	 1.011900000E+04
 1.491536511E+03	 1.012100000E+04
 1.492056481E+03	 1.012800000E+04
 1.492576397E+03	 1.012300000E+04
 1.493096258E+03	 1.007500000E+04
 1.493616064E+03	 1.019300000E+04
 1.494135816E+03	 1.015800000E+04
 1.494655513E+03	 1.009500000E+04
 1.495175155E+03	 1.002900000E+04
 1.495694742E+03	 1.000800000E+04
 1.496214274E+03	 1.010800000E+04
 1.496733752E+03	 1.005600000E+04
 1.497253175E+03	 1.009200000E+04
 1.497772544E+03	 1.018300000E+04
 1.498291858E+03	 1.012200000E+04
 1.498811116E+03	 1.007700000E+04
 1.499330321E+03	 1.011100000E+04
 1.499849470E+03	 9.976000000E+03
 1.500368565E+03	 1.011700000E+04
 1.500887605E+03	 1.000100000E+04
 1.501406591E+03	 1.003000000E+04
 1.501925521E+03	 1.009400000E+04
 1.502444397E+03	 9.978000000E+03
 1.502963219E+03	 1.015500000E+04
 1.503481985E+03	 1.001800000E+04
 1.504000697E+03	 9.958000000E+03
 1.504519355E+03	 9.947000000E+03
 1.505037957E+03	 9.923000000E+03
 1.505556505E+03	 9.986000000E+03
 1.506074999E+03	 1.001800000E+04
 1.506593437E+03	 9.958000000E+03
 1.507111821E+03	 9.976000000E+03
 1.507630150E+03	 9.935000000E+03
 1.508148425E+03	 1.004000000E+04
 1.508666645E+03	 1.002000000E+04
 1.509184810E+03	 9.984000000E+03
 1.509702921E+03	 9.913000000E+03
 1.510220977E+03	 9.967000000E+03
 1.510738979E+03	 9.972000000E+03
 1.511256925E+03	 9.919000000E+03
 1.511774817E+03	 9.978000000E+03
 1.512292655E+03	 9.991000000E+03
 1.512810438E+03	 9.966000000E+03
 1.513328166E+03	 9.948000000E+03
 1.513845840E+03	 1.002500000E+04
 1.514363459E+03	 9.951000000E+03
 1.514881023E+03	 9.998000000E+03
 1.515398533E+03	 1.003200000E+04
 1.515915988E+03	 9.858000000E+03
 1.516433389E+03	 9.972000000E+03
 1.516950734E+03	 9.931000000E+03
 1.517468026E+03	 9.906000000E+03
 1.517985263E+03	 9.991000000E+03
 1.518502445E+03	 9.906000000E+03
 1.519019572E+03	 9.879000000E+03
 1.519536645E+03	 9.902000000E+03
 1.520053664E+03	 1.001800000E+04
 1.520570628E+03	 9.938000000E+03
 1.521087537E+03	 9.936000000E+03
 1.521604392E+03	 9.854000000E+03
 1.522121192E+03	 9.829000000E+03
 1.522637937E+03	 1.002900000E+04
 1.523154628E+03	 9.789000000E+03
 1.523671265E+03	 9.885000000E+03
 1.524187847E+03	 9.975000000E+03
 1.524704374E+03	 9.844000000E+03
 1.525220847E+03	 9.891000000E+03
 1.525737265E+03	 9.885000000E+03
 1.526253629E+03	 9.855000000E+03
 1.526769938E+03	 9.917000000E+03
 1.527286192E+03	 9.950000000E+03
 1.527802392E+03	 9.889000000E+03
 1.528318538E+03	 9.838000000E+03
 1.528834629E+03	 9.918000000E+03
 1.529350666E+03	 9.932000000E+03
 1.529866648E+03	 9.843000000E+03
 1.530382575E+03	 9.846000000E+03
 1.530898448E+03	 9.793000000E+03
 1.531414266E+03	 9.840000000E+03
 1.531930030E+03	 9.779000000E+03
 1.532445740E+03	 9.845000000E+03
 1.532961395E+03	 9.826000000E+03
 1.533476995E+03	 9.904000000E+03
 1.533992541E+03	 9.920000000E+03
 1.534508033E+03	 9.860000000E+03
 1.535023470E+03	 9.820000000E+03
 1.535538852E+03	 9.801000000E+03
 1.536054180E+03	 9.901000000E+03
 1.536569454E+03	 9.790000000E+03
 1.537084673E+03	 9.868000000E+03
 1.537599837E+03	 9.813000000E+03
 1.538114947E+03	 9.841000000E+03
 1.538630003E+03	 9.763000000E+03
 1.539145004E+03	 9.875000000E+03
 1.539659951E+03	 9.933000000E+03
 1.540174843E+03	 9.765000000E+03
 1.540689681E+03	 9.783000000E+03
 1.541204465E+03	 9.846000000E+03
 1.541719194E+03	 9.735000000E+03
 1.542233868E+03	 9.819000000E+03
 1.542748488E+03	 9.833000000E+03
 1.543263054E+03	 9.773000000E+03
 1.543777565E+03	 9.819000000E+03
 1.544292022E+03	 9.782000000E+03
 1.544806424E+03	 9.862000000E+03
 1.545320772E+03	 9.771000000E+03
 1.545835066E+03	 9.796000000E+03
 1.546349305E+03	 9.738000000E+03
 1.546863489E+03	 9.733000000E+03
 1.547377620E+03	 9.799000000E+03
 1.547891696E+03	 9.797000000E+03
 1.548405717E+03	 9.781000000E+03
 1.548919684E+03	 9.670000000E+03
 1.549433597E+03	 9.820000000E+03
 1.549947455E+03	 9.866000000E+03
 1.550461259E+03	 9.806000000E+03
 1.550975009E+03	 9.732000000E+03
 1.551488704E+03	 9.771000000E+03
 1.552002345E+03	 9.777000000E+03
 1.552515931E+03	 9.774000000E+03
 1.553029463E+03	 9.796000000E+03
 1.553542941E+03	 9.704000000E+03
 1.554056364E+03	 9.689000000E+03
 1.554569733E+03	 9.735000000E+03
 1.555083048E+03	 9.850000000E+03
 1.555596308E+03	 9.770000000E+03
 1.556109514E+03	 9.701000000E+03
 1.556622665E+03	 9.737000000E+03
 1.557135762E+03	 9.660000000E+03
 1.557648805E+03	 9.895000000E+03
 1.558161794E+03	 9.811000000E+03
 1.558674728E+03	 9.666000000E+03
 1.559187608E+03	 9.673000000E+03
 1.559700433E+03	 9.806000000E+03
 1.560213205E+03	 9.734000000E+03
 1.560725921E+03	 9.671000000E+03
 1.561238584E+03	 9.829000000E+03
 1.561751192E+03	 9.703000000E+03
 1.562263746E+03	 9.600000000E+03
 1.562776246E+03	 9.702000000E+03
 1.563288691E+03	 9.717000000E+03
 1.563801082E+03	 9.684000000E+03
 1.564313419E+03	 9.831000000E+03
 1.564825701E+03	 9.720000000E+03
 1.565337929E+03	 9.704000000E+03
 1.565850103E+03	 9.735000000E+03
 1.566362223E+03	 9.776000000E+03
 1.566874288E+03	 9.754000000E+03
 1.567386299E+03	 9.768000000E+03
 1.567898256E+03	 9.711000000E+03
 1.568410158E+03	 9.647000000E+03
 1.568922007E+03	 9.775000000E+03
 1.569433800E+03	 9.579000000E+03
 1.569945540E+03	 9.624000000E+03
 1.570457226E+03	 9.728000000E+03
 1.570968857E+03	 9.713000000E+03
 1.571480434E+03	 9.718000000E+03
 1.571991956E+03	 9.716000000E+03
 1.572503425E+03	 9.747000000E+03
 1.573014839E+03	 9.681000000E+03
 1.573526199E+03	 9.618000000E+03
 1.574037505E+03	 9.663000000E+03
 1.574548756E+03	 9.687000000E+03
 1.575059953E+03	 9.670000000E+03
 1.575571096E+03	 9.700000000E+03
 1.576082185E+03	 9.562000000E+03
 1.576593220E+03	 9.687000000E+03
 1.577104200E+03	 9.575000000E+03
 1.577615126E+03	 9.600000000E+03
 1.578125998E+03	 9.620000000E+03
 1.578636816E+03	 9.585000000E+03
 1.579147580E+03	 9.621000000E+03
 1.579658289E+03	 9.713000000E+03
 1.580168944E+03	 9.681000000E+03
 1.580679545E+03	 9.602000000E+03
 1.581190092E+03	 9.643000000E+03
 1.581700585E+03	 9.569000000E+03
 1.582211023E+03	 9.582000000E+03
 1.582721407E+03	 9.617000000E+03
 1.583231737E+03	 9.462000000E+03
 1.583742013E+03	 9.642000000E+03
 1.584252235E+03	 9.569000000E+03
 1.584762403E+03	 9.546000000E+03
 1.585272516E+03	 9.682000000E+03
 1.585782575E+03	 9.495000000E+03
 1.586292581E+03	 9.508000000E+03
 1.586802532E+03	 9.557000000E+03
 1.587312428E+03	 9.653000000E+03
 1.587822271E+03	 9.511000000E+03
 1.588332060E+03	 9.506000000E+03
 1.588841794E+03	 9.588000000E+03
 1.589351474E+03	 9.534000000E+03
 1.589861100E+03	 9.476000000E+03
 1.590370672E+03	 9.659000000E+03
 1.590880190E+03	 9.442000000E+03
 1.591389654E+03	 9.498000000E+03
 1.591899064E+03	 9.570000000E+03
 1.592408419E+03	 9.496000000E+03
