 1.042452273E+03	 7.050600098E+03
 1.043018714E+03	 7.072000000E+03
 1.043585098E+03	 7.088399902E+03
 1.044151424E+03	 7.073600098E+03
 1.044717692E+03	 7.012799805E+03
 1.045283903E+03	 7.053200195E+03
 1.045850056E+03	 7.027399902E+03
 1.046416151E+03	 7.037600098E+03
 1.046982188E+03	 7.047399902E+03
 1.047548167E+03	 6.996200195E+03
 1.048114089E+03	 7.057200195E+03
 1.048679953E+03	 7.075200195E+03
 1.049245760E+03	 7.035000000E+03
 1.049811509E+03	 7.062200195E+03
 1.050377200E+03	 7.050399902E+03
 1.050942833E+03	 6.979799805E+03
 1.051508408E+03	 6.983600098E+03
 1.052073926E+03	 6.981600098E+03
 1.052639387E+03	 7.003799805E+03
 1.053204789E+03	 6.992600098E+03
 1.053770134E+03	 7.060600098E+03
 1.054335421E+03	 7.016200195E+03
 1.054900651E+03	 7.027000000E+03
 1.055465823E+03	 6.976799805E+03
 1.056030937E+03	 7.017000000E+03
 1.056595993E+03	 6.995000000E+03
 1.057160992E+03	 6.998200195E+03
 1.057725934E+03	 7.017600098E+03
 1.058290817E+03	 6.995399902E+03
 1.058855643E+03	 6.980399902E+03
 1.059420411E+03	 7.002200195E+03
 1.059985122E+03	 6.948399902E+03
 1.060549775E+03	 7.020000000E+03
 1.061114371E+03	 6.965600098E+03
 1.061678908E+03	 6.999399902E+03
 1.062243389E+03	 7.006799805E+03
 1.062807811E+03	 6.942399902E+03
 1.063372176E+03	 6.927000000E+03
 1.063936483E+03	 6.905000000E+03
 1.064500733E+03	 6.943799805E+03
 1.065064925E+03	 6.924600098E+03
 1.065629060E+03	 6.919799805E+03
 1.066193137E+03	 6.976799805E+03
 1.066757156E+03	 6.952600098E+03
 1.067321118E+03	 6.945799805E+03
 1.067885022E+03	 6.897399902E+03
 1.068448869E+03	 6.915600098E+03
 1.069012658E+03	 6.929600098E+03
 1.069576390E+03	 6.939000000E+03
 1.070140063E+03	 6.899399902E+03
 1.070703680E+03	 6.937200195E+03
 1.071267239E+03	 6.905600098E+03
 1.071830740E+03	 6.882600098E+03
 1.072394184E+03	 6.954000000E+03
 1.072957570E+03	 6.919399902E+03
 1.073520899E+03	 6.849600098E+03
 1.074084170E+03	 6.959200195E+03
 1.074647383E+03	 6.888000000E+03
 1.075210540E+03	 6.860799805E+03
 1.075773638E+03	 6.869799805E+03
 1.076336679E+03	 6.858799805E+03
 1.076899663E+03	 6.839200195E+03
 1.077462589E+03	 6.869799805E+03
 1.078025457E+03	 6.822200195E+03
 1.078588268E+03	 6.831000000E+03
 1.079151022E+03	 6.785399902E+03
 1.079713718E+03	 6.846399902E+03
 1.080276356E+03	 6.824200195E+03
 1.080838937E+03	 6.825000000E+03
 1.081401461E+03	 6.810000000E+03
 1.081963927E+03	 6.844799805E+03
 1.082526336E+03	 6.755399902E+03
 1.083088687E+03	 6.832399902E+03
 1.083650981E+03	 6.779000000E+03
 1.084213217E+03	 6.823399902E+03
 1.084775396E+03	 6.748600098E+03
 1.085337517E+03	 6.873399902E+03
 1.085899581E+03	 6.742799805E+03
 1.086461587E+03	 6.758000000E+03
 1.087023536E+03	 6.712399902E+03
 1.087585428E+03	 6.782600098E+03
 1.088147262E+03	 6.728799805E+03
 1.088709039E+03	 6.772799805E+03
 1.089270758E+03	 6.703200195E+03
 1.089832420E+03	 6.788600098E+03
 1.090394024E+03	 6.664399902E+03
 1.090955571E+03	 6.729000000E+03
 1.091517061E+03	 6.687600098E+03
 1.092078493E+03	 6.689799805E+03
 1.092639868E+03	 6.651000000E+03
 1.093201185E+03	 6.712200195E+03
 1.093762445E+03	 6.663200195E+03
 1.094323648E+03	 6.717399902E+03
 1.094884793E+03	 6.633000000E+03
 1.095445881E+03	 6.750000000E+03
 1.096006911E+03	 6.622399902E+03
 1.096567884E+03	 6.674000000E+03
 1.097128800E+03	 6.572200195E+03
 1.097689659E+03	 6.669399902E+03
 1.098250460E+03	 6.610600098E+03
 1.098811203E+03	 6.671399902E+03
 1.099371890E+03	 6.621200195E+03
 1.099932518E+03	 6.684200195E+03
 1.100493090E+03	 6.553799805E+03
 1.101053604E+03	 6.605399902E+03
 1.101614061E+03	 6.554799805E+03
 1.102174461E+03	 6.626200195E+03
 1.102734803E+03	 6.526200195E+03
 1.103295088E+03	 6.598000000E+03
 1.103855316E+03	 6.559600098E+03
 1.104415486E+03	 6.582799805E+03
 1.104975599E+03	 6.522600098E+03
 1.105535655E+03	 6.524600098E+03
 1.106095653E+03	 6.538399902E+03
 1.106655594E+03	 6.555200195E+03
 1.107215478E+03	 6.484399902E+03
 1.107775305E+03	 6.518600098E+03
 1.108335074E+03	 6.481600098E+03
 1.108894786E+03	 6.564200195E+03
 1.109454440E+03	 6.455200195E+03
 1.110014038E+03	 6.553600098E+03
 1.110573578E+03	 6.463000000E+03
 1.111133061E+03	 6.524399902E+03
 1.111692486E+03	 6.417799805E+03
 1.112251854E+03	 6.461200195E+03
 1.112811165E+03	 6.425200195E+03
 1.113370419E+03	 6.469600098E+03
 1.113929616E+03	 6.455200195E+03
 1.114488755E+03	 6.500000000E+03
 1.115047837E+03	 6.414200195E+03
 1.115606862E+03	 6.489399902E+03
 1.116165830E+03	 6.407200195E+03
 1.116724740E+03	 6.444600098E+03
 1.117283593E+03	 6.434600098E+03
 1.117842389E+03	 6.452600098E+03
 1.118401128E+03	 6.452799805E+03
 1.118959809E+03	 6.438000000E+03
 1.119518433E+03	 6.398200195E+03
 1.120077000E+03	 6.420600098E+03
 1.120635510E+03	 6.422799805E+03
 1.121193963E+03	 6.425600098E+03
 1.121752358E+03	 6.362399902E+03
 1.122310697E+03	 6.422799805E+03
 1.122868978E+03	 6.373600098E+03
 1.123427202E+03	 6.405000000E+03
 1.123985368E+03	 6.332600098E+03
 1.124543478E+03	 6.390799805E+03
 1.125101530E+03	 6.374399902E+03
 1.125659526E+03	 6.362399902E+03
 1.126217464E+03	 6.392399902E+03
 1.126775345E+03	 6.389799805E+03
 1.127333168E+03	 6.384600098E+03
 1.127890935E+03	 6.382799805E+03
 1.128448644E+03	 6.320799805E+03
 1.129006297E+03	 6.319600098E+03
 1.129563892E+03	 6.334799805E+03
 1.130121430E+03	 6.314399902E+03
 1.130678911E+03	 6.355000000E+03
 1.131236335E+03	 6.351600098E+03
 1.131793701E+03	 6.349200195E+03
 1.132351011E+03	 6.340799805E+03
 1.132908263E+03	 6.327600098E+03
 1.133465458E+03	 6.308000000E+03
 1.134022597E+03	 6.375399902E+03
 1.134579678E+03	 6.332600098E+03
 1.135136702E+03	 6.304200195E+03
 1.135693669E+03	 6.302600098E+03
 1.136250578E+03	 6.303399902E+03
 1.136807431E+03	 6.271600098E+03
 1.137364227E+03	 6.357799805E+03
 1.137920965E+03	 6.291200195E+03
 1.138477647E+03	 6.305399902E+03
 1.139034271E+03	 6.293399902E+03
 1.139590839E+03	 6.328000000E+03
 1.140147349E+03	 6.308200195E+03
 1.140703802E+03	 6.308600098E+03
 1.141260198E+03	 6.299399902E+03
 1.141816537E+03	 6.305200195E+03
 1.142372820E+03	 6.285200195E+03
 1.142929045E+03	 6.329799805E+03
 1.143485213E+03	 6.280000000E+03
 1.144041323E+03	 6.312600098E+03
 1.144597377E+03	 6.267399902E+03
 1.145153374E+03	 6.296200195E+03
 1.145709314E+03	 6.254000000E+03
 1.146265197E+03	 6.282000000E+03
 1.146821023E+03	 6.281600098E+03
 1.147376792E+03	 6.259000000E+03
 1.147932503E+03	 6.294399902E+03
 1.148488158E+03	 6.313000000E+03
 1.149043756E+03	 6.277799805E+03
 1.149599297E+03	 6.299399902E+03
 1.150154781E+03	 6.265600098E+03
 1.150710207E+03	 6.298200195E+03
 1.151265577E+03	 6.295600098E+03
 1.151820890E+03	 6.299799805E+03
 1.152376146E+03	 6.280600098E+03
 1.152931345E+03	 6.322399902E+03
 1.153486487E+03	 6.224600098E+03
 1.154041572E+03	 6.265399902E+03
 1.154596600E+03	 6.283000000E+03
 1.155151571E+03	 6.307200195E+03
 1.155706485E+03	 6.252399902E+03
 1.156261342E+03	 6.264600098E+03
 1.156816142E+03	 6.243600098E+03
 1.157370885E+03	 6.272000000E+03
 1.157925572E+03	 6.276399902E+03
 1.158480201E+03	 6.336799805E+03
 1.159034774E+03	 6.255799805E+03
 1.159589289E+03	 6.261600098E+03
 1.160143748E+03	 6.254799805E+03
 1.160698149E+03	 6.257600098E+03
 1.161252494E+03	 6.259799805E+03
 1.161806782E+03	 6.257399902E+03
 1.162361013E+03	 6.253000000E+03
 1.162915187E+03	 6.289799805E+03
 1.163469304E+03	 6.214000000E+03
 1.164023364E+03	 6.208600098E+03
 1.164577368E+03	 6.214799805E+03
 1.165131314E+03	 6.222399902E+03
 1.165685204E+03	 6.186200195E+03
 1.166239036E+03	 6.208000000E+03
 1.166792812E+03	 6.220799805E+03
 1.167346531E+03	 6.268000000E+03
 1.167900193E+03	 6.209399902E+03
 1.168453798E+03	 6.210600098E+03
 1.169007347E+03	 6.253000000E+03
 1.169560838E+03	 6.246200195E+03
 1.170114273E+03	 6.235000000E+03
 1.170667650E+03	 6.184200195E+03
 1.171220971E+03	 6.208200195E+03
 1.171774235E+03	 6.189799805E+03
 1.172327443E+03	 6.208399902E+03
 1.172880593E+03	 6.184600098E+03
 1.173433687E+03	 6.202799805E+03
 1.173986723E+03	 6.185399902E+03
 1.174539703E+03	 6.184799805E+03
 1.175092626E+03	 6.189799805E+03
 1.175645493E+03	 6.209399902E+03
 1.176198302E+03	 6.177200195E+03
 1.176751055E+03	 6.164799805E+03
 1.177303751E+03	 6.159200195E+03
 1.177856390E+03	 6.206600098E+03
 1.178408972E+03	 6.134399902E+03
 1.178961498E+03	 6.182600098E+03
 1.179513966E+03	 6.156200195E+03
 1.180066378E+03	 6.139200195E+03
 1.180618733E+03	 6.116600098E+03
 1.181171032E+03	 6.145600098E+03
 1.181723273E+03	 6.149399902E+03
 1.182275458E+03	 6.171399902E+03
 1.182827586E+03	 6.093399902E+03
 1.183379657E+03	 6.171000000E+03
 1.183931672E+03	 6.095600098E+03
 1.184483630E+03	 6.132200195E+03
 1.185035531E+03	 6.132200195E+03
 1.185587375E+03	 6.121000000E+03
 1.186139162E+03	 6.107000000E+03
 1.186690893E+03	 6.140799805E+03
 1.187242567E+03	 6.092799805E+03
 1.187794184E+03	 6.118000000E+03
 1.188345745E+03	 6.064600098E+03
 1.188897249E+03	 6.109799805E+03
 1.189448696E+03	 6.094600098E+03
 1.190000086E+03	 6.112799805E+03
 1.190551420E+03	 6.078600098E+03
 1.191102697E+03	 6.133200195E+03
 1.191653918E+03	 6.061200195E+03
 1.192205081E+03	 6.132200195E+03
 1.192756188E+03	 6.072799805E+03
 1.193307238E+03	 6.095399902E+03
 1.193858232E+03	 6.074799805E+03
 1.194409169E+03	 6.047200195E+03
 1.194960049E+03	 6.047799805E+03
 1.195510872E+03	 6.067000000E+03
 1.196061639E+03	 6.101799805E+03
 1.196612349E+03	 6.079600098E+03
 1.197163003E+03	 6.032399902E+03
 1.197713599E+03	 6.059200195E+03
 1.198264139E+03	 6.052200195E+03
 1.198814623E+03	 6.012600098E+03
 1.199365050E+03	 6.002399902E+03
 1.199915420E+03	 6.038600098E+03
 1.200465734E+03	 6.035200195E+03
 1.201015990E+03	 6.022200195E+03
 1.201566191E+03	 6.028200195E+03
 1.202116334E+03	 6.008399902E+03
 1.202666421E+03	 6.033600098E+03
 1.203216452E+03	 6.002000000E+03
 1.203766425E+03	 6.031000000E+03
 1.204316343E+03	 5.996600098E+03
 1.204866203E+03	 6.041200195E+03
 1.205416007E+03	 5.991799805E+03
 1.205965754E+03	 6.017399902E+03
 1.206515445E+03	 5.988600098E+03
 1.207065079E+03	 5.971600098E+03
 1.207614657E+03	 5.980200195E+03
 1.208164177E+03	 5.994000000E+03
 1.208713642E+03	 5.960600098E+03
 1.209263050E+03	 5.953200195E+03
 1.209812401E+03	 5.958399902E+03
 1.210361695E+03	 5.952000000E+03
 1.210910933E+03	 5.938000000E+03
 1.211460115E+03	 5.934000000E+03
 1.212009240E+03	 5.899399902E+03
 1.212558308E+03	 5.904399902E+03
 1.213107320E+03	 5.942399902E+03
 1.213656275E+03	 5.916399902E+03
 1.214205174E+03	 5.928000000E+03
 1.214754016E+03	 5.885200195E+03
 1.215302801E+03	 5.914600098E+03
 1.215851530E+03	 5.916000000E+03
 1.216400203E+03	 5.918399902E+03
 1.216948819E+03	 5.889399902E+03
 1.217497378E+03	 5.941399902E+03
 1.218045881E+03	 5.867200195E+03
 1.218594327E+03	 5.931799805E+03
 1.219142717E+03	 5.887200195E+03
 1.219691051E+03	 5.892399902E+03
 1.220239327E+03	 5.869799805E+03
 1.220787548E+03	 5.885600098E+03
 1.221335712E+03	 5.864600098E+03
 1.221883819E+03	 5.882399902E+03
 1.222431870E+03	 5.895600098E+03
 1.222979864E+03	 5.874000000E+03
 1.223527802E+03	 5.814799805E+03
 1.224075683E+03	 5.833000000E+03
 1.224623508E+03	 5.884799805E+03
 1.225171277E+03	 5.860399902E+03
 1.225718989E+03	 5.879799805E+03
 1.226266644E+03	 5.885399902E+03
 1.226814243E+03	 5.875799805E+03
 1.227361786E+03	 5.861600098E+03
 1.227909272E+03	 5.827200195E+03
 1.228456702E+03	 5.835600098E+03
 1.229004075E+03	 5.851399902E+03
 1.229551392E+03	 5.843200195E+03
 1.230098652E+03	 5.839399902E+03
 1.230645856E+03	 5.846600098E+03
 1.231193003E+03	 5.874399902E+03
 1.231740094E+03	 5.791399902E+03
 1.232287129E+03	 5.831799805E+03
 1.232834107E+03	 5.849399902E+03
 1.233381029E+03	 5.844799805E+03
 1.233927894E+03	 5.847399902E+03
 1.234474703E+03	 5.847000000E+03
 1.235021455E+03	 5.782600098E+03
 1.235568151E+03	 5.811000000E+03
 1.236114791E+03	 5.808600098E+03
 1.236661374E+03	 5.850399902E+03
 1.237207901E+03	 5.811600098E+03
 1.237754372E+03	 5.824000000E+03
 1.238300786E+03	 5.813399902E+03
 1.238847144E+03	 5.786200195E+03
 1.239393445E+03	 5.843000000E+03
 1.239939690E+03	 5.803000000E+03
 1.240485879E+03	 5.799600098E+03
 1.241032011E+03	 5.799000000E+03
 1.241578087E+03	 5.780399902E+03
 1.242124106E+03	 5.789799805E+03
 1.242670070E+03	 5.827000000E+03
 1.243215976E+03	 5.811200195E+03
 1.243761827E+03	 5.784200195E+03
 1.244307621E+03	 5.772600098E+03
 1.244853359E+03	 5.802600098E+03
 1.245399040E+03	 5.735799805E+03
 1.245944665E+03	 5.792200195E+03
 1.246490234E+03	 5.782000000E+03
 1.247035746E+03	 5.795200195E+03
 1.247581203E+03	 5.774600098E+03
 1.248126602E+03	 5.782000000E+03
 1.248671946E+03	 5.730399902E+03
 1.249217233E+03	 5.755399902E+03
 1.249762464E+03	 5.778000000E+03
 1.250307638E+03	 5.762799805E+03
 1.250852757E+03	 5.729200195E+03
 1.251397819E+03	 5.761200195E+03
 1.251942824E+03	 5.740600098E+03
 1.252487774E+03	 5.743200195E+03
 1.253032667E+03	 5.734600098E+03
 1.253577503E+03	 5.763399902E+03
 1.254122284E+03	 5.732799805E+03
 1.254667008E+03	 5.720399902E+03
 1.255211676E+03	 5.776399902E+03
 1.255756288E+03	 5.731799805E+03
 1.256300843E+03	 5.729600098E+03
 1.256845342E+03	 5.731000000E+03
 1.257389785E+03	 5.719000000E+03
 1.257934172E+03	 5.711600098E+03
 1.258478502E+03	 5.705600098E+03
 1.259022776E+03	 5.731799805E+03
 1.259566994E+03	 5.717399902E+03
 1.260111156E+03	 5.688200195E+03
 1.260655261E+03	 5.671399902E+03
 1.261199311E+03	 5.706799805E+03
 1.261743304E+03	 5.680799805E+03
 1.262287240E+03	 5.675799805E+03
 1.262831121E+03	 5.709399902E+03
 1.263374945E+03	 5.715200195E+03
 1.263918713E+03	 5.682200195E+03
 1.264462425E+03	 5.681399902E+03
 1.265006081E+03	 5.756600098E+03
 1.265549680E+03	 5.742799805E+03
 1.266093223E+03	 5.710000000E+03
 1.266636711E+03	 5.674600098E+03
 1.267180141E+03	 5.675600098E+03
 1.267723516E+03	 5.665600098E+03
 1.268266835E+03	 5.737600098E+03
 1.268810097E+03	 5.692000000E+03
 1.269353303E+03	 5.656000000E+03
 1.269896453E+03	 5.673600098E+03
 1.270439547E+03	 5.669000000E+03
 1.270982584E+03	 5.622399902E+03
 1.271525566E+03	 5.686799805E+03
 1.272068491E+03	 5.669200195E+03
 1.272611360E+03	 5.728000000E+03
 1.273154173E+03	 5.673000000E+03
 1.273696930E+03	 5.637799805E+03
 1.274239631E+03	 5.647200195E+03
 1.274782275E+03	 5.652000000E+03
 1.275324864E+03	 5.666600098E+03
 1.275867396E+03	 5.651399902E+03
 1.276409872E+03	 5.628799805E+03
 1.276952292E+03	 5.659600098E+03
 1.277494656E+03	 5.621200195E+03
 1.278036964E+03	 5.644000000E+03
 1.278579215E+03	 5.646600098E+03
 1.279121411E+03	 5.642799805E+03
 1.279663550E+03	 5.592000000E+03
 1.280205634E+03	 5.624200195E+03
 1.280747661E+03	 5.629399902E+03
 1.281289632E+03	 5.636399902E+03
 1.281831547E+03	 5.606399902E+03
 1.282373406E+03	 5.652600098E+03
 1.282915209E+03	 5.644200195E+03
 1.283456955E+03	 5.608799805E+03
 1.283998646E+03	 5.655399902E+03
 1.284540281E+03	 5.708600098E+03
 1.285081859E+03	 6.007600098E+03
 1.285623381E+03	 6.354000000E+03
 1.286164848E+03	 6.037200195E+03
 1.286706258E+03	 5.709600098E+03
 1.287247612E+03	 5.637000000E+03
 1.287788911E+03	 5.606600098E+03
 1.288330153E+03	 5.632000000E+03
 1.288871339E+03	 5.567399902E+03
 1.289412469E+03	 5.612399902E+03
 1.289953543E+03	 5.598799805E+03
 1.290494561E+03	 5.605600098E+03
 1.291035523E+03	 5.592799805E+03
 1.291576428E+03	 5.572399902E+03
 1.292117278E+03	 5.570600098E+03
 1.292658072E+03	 5.576799805E+03
 1.293198810E+03	 5.612000000E+03
 1.293739492E+03	 5.579799805E+03
 1.294280118E+03	 5.576799805E+03
 1.294820687E+03	 5.552000000E+03
 1.295361201E+03	 5.570200195E+03
 1.295901659E+03	 5.550600098E+03
 1.296442061E+03	 5.560200195E+03
 1.296982406E+03	 5.541600098E+03
 1.297522696E+03	 5.579600098E+03
 1.298062930E+03	 5.537399902E+03
 1.298603108E+03	 5.602600098E+03
 1.299143229E+03	 5.552200195E+03
 1.299683295E+03	 5.539399902E+03
 1.300223305E+03	 5.536799805E+03
 1.300763259E+03	 5.554200195E+03
 1.301303157E+03	 5.486799805E+03
 1.301842999E+03	 5.509600098E+03
 1.302382785E+03	 5.538799805E+03
 1.302922515E+03	 5.521399902E+03
 1.303462189E+03	 5.531799805E+03
 1.304001807E+03	 5.564399902E+03
 1.304541369E+03	 5.538399902E+03
 1.305080875E+03	 5.489200195E+03
 1.305620326E+03	 5.524600098E+03
 1.306159720E+03	 5.493399902E+03
 1.306699058E+03	 5.516799805E+03
 1.307238341E+03	 5.464799805E+03
 1.307777567E+03	 5.518600098E+03
 1.308316738E+03	 5.490399902E+03
 1.308855853E+03	 5.540200195E+03
 1.309394912E+03	 5.468799805E+03
 1.309933915E+03	 5.520000000E+03
 1.310472862E+03	 5.471399902E+03
 1.311011753E+03	 5.526200195E+03
 1.311550588E+03	 5.450399902E+03
 1.312089367E+03	 5.473799805E+03
 1.312628090E+03	 5.472600098E+03
 1.313166758E+03	 5.517200195E+03
 1.313705370E+03	 5.493600098E+03
 1.314243925E+03	 5.512600098E+03
 1.314782425E+03	 5.504399902E+03
 1.315320869E+03	 5.484799805E+03
 1.315859257E+03	 5.505399902E+03
 1.316397589E+03	 5.472799805E+03
 1.316935866E+03	 5.475600098E+03
 1.317474086E+03	 5.446399902E+03
 1.318012251E+03	 5.470399902E+03
 1.318550360E+03	 5.468600098E+03
 1.319088413E+03	 5.480399902E+03
 1.319626410E+03	 5.421399902E+03
 1.320164351E+03	 5.472000000E+03
 1.320702236E+03	 5.470399902E+03
 1.321240066E+03	 5.452000000E+03
 1.321777839E+03	 5.431000000E+03
 1.322315557E+03	 5.468600098E+03
 1.322853219E+03	 5.448600098E+03
 1.323390826E+03	 5.500600098E+03
 1.323928376E+03	 5.426600098E+03
 1.324465871E+03	 5.450799805E+03
 1.325003309E+03	 5.451399902E+03
 1.325540692E+03	 5.444200195E+03
 1.326078020E+03	 5.441200195E+03
 1.326615291E+03	 5.448200195E+03
 1.327152506E+03	 5.398399902E+03
 1.327689666E+03	 5.416200195E+03
 1.328226770E+03	 5.452200195E+03
 1.328763818E+03	 5.399600098E+03
 1.329300811E+03	 5.440200195E+03
 1.329837747E+03	 5.425799805E+03
 1.330374628E+03	 5.404200195E+03
 1.330911453E+03	 5.382200195E+03
 1.331448222E+03	 5.447399902E+03
 1.331984936E+03	 5.411000000E+03
 1.332521594E+03	 5.448399902E+03
 1.333058196E+03	 5.408200195E+03
 1.333594742E+03	 5.402600098E+03
 1.334131232E+03	 5.405200195E+03
 1.334667667E+03	 5.383600098E+03
 1.335204046E+03	 5.382799805E+03
 1.335740369E+03	 5.407399902E+03
 1.336276637E+03	 5.393799805E+03
 1.336812848E+03	 5.404200195E+03
 1.337349004E+03	 5.436200195E+03
 1.337885105E+03	 5.431600098E+03
 1.338421149E+03	 5.417600098E+03
 1.338957138E+03	 5.385799805E+03
 1.339493071E+03	 5.400000000E+03
 1.340028949E+03	 5.381200195E+03
 1.340564770E+03	 5.375200195E+03
 1.341100536E+03	 5.378000000E+03
 1.341636246E+03	 5.377399902E+03
 1.342171901E+03	 5.366200195E+03
 1.342707500E+03	 5.404200195E+03
 1.343243043E+03	 5.368799805E+03
 1.343778530E+03	 5.370000000E+03
 1.344313962E+03	 5.382799805E+03
 1.344849338E+03	 5.399799805E+03
 1.345384659E+03	 5.331399902E+03
 1.345919923E+03	 5.362200195E+03
 1.346455133E+03	 5.360000000E+03
 1.346990286E+03	 5.373200195E+03
 1.347525384E+03	 5.380200195E+03
 1.348060426E+03	 5.347399902E+03
 1.348595412E+03	 5.374399902E+03
 1.349130343E+03	 5.369600098E+03
 1.349665218E+03	 5.368200195E+03
 1.350200037E+03	 5.354600098E+03
 1.350734801E+03	 5.358399902E+03
 1.351269509E+03	 5.329000000E+03
 1.351804162E+03	 5.376000000E+03
 1.352338758E+03	 5.342399902E+03
 1.352873300E+03	 5.336200195E+03
 1.353407785E+03	 5.336200195E+03
 1.353942215E+03	 5.341600098E+03
 1.354476589E+03	 5.331399902E+03
 1.355010908E+03	 5.335000000E+03
 1.355545171E+03	 5.327200195E+03
 1.356079379E+03	 5.357000000E+03
 1.356613530E+03	 5.329799805E+03
 1.357147627E+03	 5.325200195E+03
 1.357681667E+03	 5.320799805E+03
 1.358215652E+03	 5.301799805E+03
 1.358749582E+03	 5.318399902E+03
 1.359283456E+03	 5.298399902E+03
 1.359817274E+03	 5.318600098E+03
 1.360351037E+03	 5.274200195E+03
 1.360884744E+03	 5.296399902E+03
 1.361418395E+03	 5.290600098E+03
 1.361951991E+03	 5.300200195E+03
 1.362485531E+03	 5.276799805E+03
 1.363019016E+03	 5.327000000E+03
 1.363552445E+03	 5.255200195E+03
 1.364085819E+03	 5.331799805E+03
 1.364619137E+03	 5.274399902E+03
 1.365152400E+03	 5.281200195E+03
 1.365685607E+03	 5.273600098E+03
 1.366218758E+03	 5.295600098E+03
 1.366751854E+03	 5.308799805E+03
 1.367284894E+03	 5.261799805E+03
 1.367817879E+03	 5.310799805E+03
 1.368350808E+03	 5.280600098E+03
 1.368883682E+03	 5.281200195E+03
 1.369416500E+03	 5.267600098E+03
 1.369949263E+03	 5.287799805E+03
 1.370481970E+03	 5.286200195E+03
 1.371014622E+03	 5.333200195E+03
 1.371547218E+03	 5.231799805E+03
 1.372079758E+03	 5.260200195E+03
 1.372612244E+03	 5.237399902E+03
 1.373144673E+03	 5.270399902E+03
 1.373677047E+03	 5.229000000E+03
 1.374209366E+03	 5.252000000E+03
 1.374741629E+03	 5.250799805E+03
 1.375273836E+03	 5.301399902E+03
 1.375805989E+03	 5.262200195E+03
 1.376338085E+03	 5.254200195E+03
 1.376870126E+03	 5.250799805E+03
 1.377402112E+03	 5.225799805E+03
 1.377934042E+03	 5.207000000E+03
 1.378465917E+03	 5.231399902E+03
 1.378997736E+03	 5.270200195E+03
 1.379529500E+03	 5.216399902E+03
 1.380061208E+03	 5.271200195E+03
 1.380592861E+03	 5.228200195E+03
 1.381124459E+03	 5.231200195E+03
 1.381656000E+03	 5.226799805E+03
 1.382187487E+03	 5.241799805E+03
 1.382718918E+03	 5.207200195E+03
 1.383250294E+03	 5.232000000E+03
 1.383781614E+03	 5.219000000E+03
 1.384312879E+03	 5.241799805E+03
 1.384844088E+03	 5.195000000E+03
 1.385375242E+03	 5.233600098E+03
 1.385906340E+03	 5.217799805E+03
 1.386437383E+03	 5.240200195E+03
 1.386968371E+03	 5.249000000E+03
 1.387499303E+03	 5.284200195E+03
 1.388030180E+03	 5.428000000E+03
 1.388561001E+03	 6.171600098E+03
 1.389091767E+03	 6.497399902E+03
 1.389622478E+03	 5.512200195E+03
 1.390153133E+03	 5.301600098E+03
 1.390683733E+03	 5.239799805E+03
 1.391214277E+03	 5.226200195E+03
 1.391744766E+03	 5.165200195E+03
 1.392275200E+03	 5.223399902E+03
 1.392805578E+03	 5.184600098E+03
 1.393335901E+03	 5.200399902E+03
 1.393866168E+03	 5.196600098E+03
 1.394396381E+03	 5.202200195E+03
 1.394926537E+03	 5.194399902E+03
 1.395456639E+03	 5.185799805E+03
 1.395986685E+03	 5.178799805E+03
 1.396516675E+03	 5.144000000E+03
 1.397046611E+03	 5.232399902E+03
 1.397576491E+03	 5.186000000E+03
 1.398106315E+03	 5.179200195E+03
 1.398636084E+03	 5.187399902E+03
 1.399165798E+03	 5.208799805E+03
 1.399695457E+03	 5.163399902E+03
 1.400225060E+03	 5.174600098E+03
 1.400754608E+03	 5.163399902E+03
 1.401284101E+03	 5.193799805E+03
 1.401813538E+03	 5.142200195E+03
 1.402342920E+03	 5.172000000E+03
 1.402872247E+03	 5.200399902E+03
 1.403401518E+03	 5.141000000E+03
 1.403930734E+03	 5.197399902E+03
 1.404459895E+03	 5.186200195E+03
 1.404989000E+03	 5.178600098E+03
 1.405518050E+03	 5.169000000E+03
 1.406047045E+03	 5.194600098E+03
 1.406575984E+03	 5.138000000E+03
 1.407104869E+03	 5.201799805E+03
 1.407633697E+03	 5.124799805E+03
 1.408162471E+03	 5.169399902E+03
 1.408691189E+03	 5.164000000E+03
 1.409219852E+03	 5.171200195E+03
 1.409748460E+03	 5.222000000E+03
 1.410277013E+03	 5.251399902E+03
 1.410805510E+03	 5.203200195E+03
 1.411333952E+03	 5.155799805E+03
 1.411862339E+03	 5.173600098E+03
 1.412390670E+03	 5.162000000E+03
 1.412918946E+03	 5.163200195E+03
 1.413447167E+03	 5.133799805E+03
 1.413975333E+03	 5.154600098E+03
 1.414503444E+03	 5.122399902E+03
 1.415031499E+03	 5.171200195E+03
 1.415559499E+03	 5.137399902E+03
 1.416087444E+03	 5.133600098E+03
 1.416615333E+03	 5.092600098E+03
 1.417143167E+03	 5.152799805E+03
 1.417670947E+03	 5.135600098E+03
 1.418198670E+03	 5.141399902E+03
 1.418726339E+03	 5.099799805E+03
 1.419253952E+03	 5.156399902E+03
 1.419781511E+03	 5.129200195E+03
 1.420309014E+03	 5.101200195E+03
 1.420836461E+03	 5.130000000E+03
 1.421363854E+03	 5.144399902E+03
 1.421891191E+03	 5.178799805E+03
 1.422418474E+03	 5.101000000E+03
 1.422945701E+03	 5.124799805E+03
 1.423472872E+03	 5.109200195E+03
 1.423999989E+03	 5.094000000E+03
 1.424527050E+03	 5.116799805E+03
 1.425054057E+03	 5.123600098E+03
 1.425581008E+03	 5.135200195E+03
 1.426107904E+03	 5.137600098E+03
 1.426634745E+03	 5.122399902E+03
 1.427161530E+03	 5.088000000E+03
 1.427688261E+03	 5.107200195E+03
 1.428214936E+03	 5.124399902E+03
 1.428741556E+03	 5.097200195E+03
 1.429268121E+03	 5.083600098E+03
 1.429794631E+03	 5.110200195E+03
 1.430321085E+03	 5.069000000E+03
 1.430847485E+03	 5.078600098E+03
 1.431373829E+03	 5.097399902E+03
 1.431900118E+03	 5.066600098E+03
 1.432426353E+03	 5.093200195E+03
 1.432952532E+03	 5.110000000E+03
 1.433478655E+03	 5.064000000E+03
 1.434004724E+03	 5.043600098E+03
 1.434530738E+03	 5.085200195E+03
 1.435056696E+03	 5.049600098E+03
 1.435582600E+03	 5.087200195E+03
 1.436108448E+03	 5.057799805E+03
 1.436634241E+03	 5.037600098E+03
 1.437159979E+03	 5.039600098E+03
 1.437685662E+03	 5.055799805E+03
 1.438211290E+03	 5.047799805E+03
 1.438736863E+03	 5.080799805E+03
 1.439262381E+03	 5.036000000E+03
 1.439787843E+03	 5.043399902E+03
 1.440313251E+03	 5.049000000E+03
 1.440838603E+03	 5.032799805E+03
 1.441363900E+03	 5.031799805E+03
 1.441889143E+03	 5.008799805E+03
 1.442414330E+03	 5.077000000E+03
 1.442939462E+03	 5.015799805E+03
 1.443464539E+03	 4.999600098E+03
 1.443989561E+03	 5.016399902E+03
 1.444514528E+03	 5.013799805E+03
 1.445039440E+03	 5.038399902E+03
 1.445564297E+03	 4.999000000E+03
 1.446089099E+03	 4.994000000E+03
 1.446613846E+03	 5.018000000E+03
 1.447138537E+03	 5.010399902E+03
 1.447663174E+03	 5.033600098E+03
 1.448187756E+03	 5.015000000E+03
 1.448712282E+03	 4.996399902E+03
 1.449236754E+03	 4.994000000E+03
 1.449761171E+03	 4.987200195E+03
 1.450285532E+03	 4.987799805E+03
 1.450809839E+03	 4.968200195E+03
 1.451334090E+03	 4.983600098E+03
 1.451858287E+03	 4.995399902E+03
 1.452382428E+03	 4.976000000E+03
 1.452906515E+03	 4.978600098E+03
 1.453430546E+03	 4.975799805E+03
 1.453954523E+03	 4.956000000E+03
 1.454478444E+03	 4.971000000E+03
 1.455002311E+03	 4.964799805E+03
 1.455526123E+03	 4.948600098E+03
 1.456049879E+03	 4.966799805E+03
 1.456573581E+03	 4.965600098E+03
 1.457097227E+03	 4.948200195E+03
 1.457620819E+03	 4.975399902E+03
 1.458144356E+03	 4.945399902E+03
 1.458667837E+03	 4.964799805E+03
 1.459191264E+03	 4.953399902E+03
 1.459714636E+03	 4.948799805E+03
 1.460237952E+03	 4.920399902E+03
 1.460761214E+03	 4.987000000E+03
 1.461284421E+03	 4.990600098E+03
 1.461807573E+03	 4.960600098E+03
 1.462330670E+03	 4.939000000E+03
 1.462853712E+03	 4.922799805E+03
 1.463376699E+03	 4.946399902E+03
 1.463899632E+03	 4.962200195E+03
 1.464422509E+03	 4.914399902E+03
 1.464945331E+03	 4.917200195E+03
 1.465468099E+03	 4.918200195E+03
 1.465990811E+03	 4.937799805E+03
 1.466513469E+03	 4.911000000E+03
 1.467036071E+03	 4.895200195E+03
 1.467558619E+03	 4.930399902E+03
 1.468081112E+03	 4.919600098E+03
 1.468603550E+03	 4.927600098E+03
 1.469125933E+03	 4.897399902E+03
 1.469648261E+03	 4.907200195E+03
 1.470170534E+03	 4.919000000E+03
 1.470692752E+03	 4.901399902E+03
 1.471214916E+03	 4.898200195E+03
 1.471737024E+03	 4.863399902E+03
 1.472259078E+03	 4.934600098E+03
 1.472781077E+03	 4.870000000E+03
 1.473303021E+03	 4.870200195E+03
 1.473824910E+03	 4.855000000E+03
 1.474346744E+03	 4.891600098E+03
 1.474868523E+03	 4.846799805E+03
 1.475390248E+03	 4.892600098E+03
 1.475911917E+03	 4.877600098E+03
 1.476433532E+03	 4.897200195E+03
 1.476955092E+03	 4.842399902E+03
 1.477476597E+03	 4.852000000E+03
 1.477998047E+03	 4.852399902E+03
 1.478519442E+03	 4.827399902E+03
 1.479040783E+03	 4.870600098E+03
 1.479562068E+03	 4.837600098E+03
 1.480083299E+03	 4.845200195E+03
 1.480604475E+03	 4.837399902E+03
 1.481125596E+03	 4.860799805E+03
 1.481646663E+03	 4.842799805E+03
 1.482167674E+03	 4.864000000E+03
 1.482688631E+03	 4.845799805E+03
 1.483209533E+03	 4.842000000E+03
 1.483730380E+03	 4.836799805E+03
 1.484251172E+03	 4.803200195E+03
 1.484771909E+03	 4.815200195E+03
 1.485292592E+03	 4.808600098E+03
 1.485813220E+03	 4.824600098E+03
 1.486333793E+03	 4.789799805E+03
 1.486854311E+03	 4.806600098E+03
 1.487374775E+03	 4.793200195E+03
 1.487895183E+03	 4.796600098E+03
 1.488415537E+03	 4.810600098E+03
 1.488935836E+03	 4.808399902E+03
 1.489456081E+03	 4.763200195E+03
 1.489976270E+03	 4.786200195E+03
 1.490496405E+03	 4.750399902E+03
 1.491016485E+03	 4.807200195E+03
 1.491536511E+03	 4.766000000E+03
 1.492056481E+03	 4.778200195E+03
 1.492576397E+03	 4.767399902E+03
 1.493096258E+03	 4.751000000E+03
 1.493616064E+03	 4.763600098E+03
 1.494135816E+03	 4.760799805E+03
 1.494655513E+03	 4.779200195E+03
 1.495175155E+03	 4.761200195E+03
 1.495694742E+03	 4.765399902E+03
 1.496214274E+03	 4.711600098E+03
 1.496733752E+03	 4.766000000E+03
 1.497253175E+03	 4.804200195E+03
 1.497772544E+03	 4.762399902E+03
 1.498291858E+03	 4.746000000E+03
 1.498811116E+03	 4.726200195E+03
 1.499330321E+03	 4.759600098E+03
 1.499849470E+03	 4.747200195E+03
 1.500368565E+03	 4.771000000E+03
 1.500887605E+03	 4.743399902E+03
 1.501406591E+03	 4.739000000E+03
 1.501925521E+03	 4.728200195E+03
 1.502444397E+03	 4.747799805E+03
 1.502963219E+03	 4.750000000E+03
 1.503481985E+03	 4.727200195E+03
 1.504000697E+03	 4.707600098E+03
 1.504519355E+03	 4.718799805E+03
 1.505037957E+03	 4.738399902E+03
 1.505556505E+03	 4.713200195E+03
 1.506074999E+03	 4.700000000E+03
 1.506593437E+03	 4.717799805E+03
 1.507111821E+03	 4.736399902E+03
 1.507630150E+03	 4.703399902E+03
 1.508148425E+03	 4.721000000E+03
 1.508666645E+03	 4.705799805E+03
 1.509184810E+03	 4.693000000E+03
 1.509702921E+03	 4.722000000E+03
 1.510220977E+03	 4.678600098E+03
 1.510738979E+03	 4.694200195E+03
 1.511256925E+03	 4.686399902E+03
 1.511774817E+03	 4.719600098E+03
 1.512292655E+03	 4.721799805E+03
 1.512810438E+03	 4.699000000E+03
 1.513328166E+03	 4.665200195E+03
 1.513845840E+03	 4.695399902E+03
 1.514363459E+03	 4.670200195E+03
 1.514881023E+03	 4.712600098E+03
 1.515398533E+03	 4.685600098E+03
 1.515915988E+03	 4.687799805E+03
 1.516433389E+03	 4.685000000E+03
 1.516950734E+03	 4.677000000E+03
 1.517468026E+03	 4.658000000E+03
 1.517985263E+03	 4.685799805E+03
 1.518502445E+03	 4.674399902E+03
 1.519019572E+03	 4.681799805E+03
 1.519536645E+03	 4.680000000E+03
 1.520053664E+03	 4.642799805E+03
 1.520570628E+03	 4.656200195E+03
 1.521087537E+03	 4.622000000E+03
 1.521604392E+03	 4.669200195E+03
 1.522121192E+03	 4.680200195E+03
 1.522637937E+03	 4.702799805E+03
 1.523154628E+03	 4.669399902E+03
 1.523671265E+03	 4.650200195E+03
 1.524187847E+03	 4.650399902E+03
 1.524704374E+03	 4.643399902E+03
 1.525220847E+03	 4.682600098E+03
 1.525737265E+03	 4.660000000E+03
 1.526253629E+03	 4.647600098E+03
 1.526769938E+03	 4.644000000E+03
 1.527286192E+03	 4.624399902E+03
 1.527802392E+03	 4.647399902E+03
 1.528318538E+03	 4.682799805E+03
 1.528834629E+03	 4.654399902E+03
 1.529350666E+03	 4.606000000E+03
 1.529866648E+03	 4.608399902E+03
 1.530382575E+03	 4.643399902E+03
 1.530898448E+03	 4.615200195E+03
 1.531414266E+03	 4.624399902E+03
 1.531930030E+03	 4.644600098E+03
 1.532445740E+03	 4.644000000E+03
 1.532961395E+03	 4.624600098E+03
 1.533476995E+03	 4.627000000E+03
 1.533992541E+03	 4.622200195E+03
 1.534508033E+03	 4.619600098E+03
 1.535023470E+03	 4.633399902E+03
 1.535538852E+03	 4.602799805E+03
 1.536054180E+03	 4.654799805E+03
 1.536569454E+03	 4.613600098E+03
 1.537084673E+03	 4.623799805E+03
 1.537599837E+03	 4.582799805E+03
 1.538114947E+03	 4.631200195E+03
 1.538630003E+03	 4.635200195E+03
 1.539145004E+03	 4.628000000E+03
 1.539659951E+03	 4.622000000E+03
 1.540174843E+03	 4.617000000E+03
 1.540689681E+03	 4.643200195E+03
 1.541204465E+03	 4.595600098E+03
 1.541719194E+03	 4.596000000E+03
 1.542233868E+03	 4.596799805E+03
 1.542748488E+03	 4.606799805E+03
 1.543263054E+03	 4.590600098E+03
 1.543777565E+03	 4.576000000E+03
 1.544292022E+03	 4.621799805E+03
 1.544806424E+03	 4.587200195E+03
 1.545320772E+03	 4.599600098E+03
 1.545835066E+03	 4.625799805E+03
 1.546349305E+03	 4.629399902E+03
 1.546863489E+03	 4.586000000E+03
 1.547377620E+03	 4.608799805E+03
 1.547891696E+03	 4.583399902E+03
 1.548405717E+03	 4.590600098E+03
 1.548919684E+03	 4.563600098E+03
 1.549433597E+03	 4.592399902E+03
 1.549947455E+03	 4.576200195E+03
 1.550461259E+03	 4.598399902E+03
 1.550975009E+03	 4.624799805E+03
 1.551488704E+03	 4.579799805E+03
 1.552002345E+03	 4.588600098E+03
 1.552515931E+03	 4.592399902E+03
 1.553029463E+03	 4.583399902E+03
 1.553542941E+03	 4.593600098E+03
 1.554056364E+03	 4.578799805E+03
 1.554569733E+03	 4.578200195E+03
 1.555083048E+03	 4.561600098E+03
 1.555596308E+03	 4.536200195E+03
 1.556109514E+03	 4.576200195E+03
 1.556622665E+03	 4.558000000E+03
 1.557135762E+03	 4.586000000E+03
 1.557648805E+03	 4.577799805E+03
 1.558161794E+03	 4.576799805E+03
 1.558674728E+03	 4.581799805E+03
 1.559187608E+03	 4.566200195E+03
 1.559700433E+03	 4.580600098E+03
 1.560213205E+03	 4.553000000E+03
 1.560725921E+03	 4.564000000E+03
 1.561238584E+03	 4.581399902E+03
 1.561751192E+03	 4.548399902E+03
 1.562263746E+03	 4.578200195E+03
 1.562776246E+03	 4.539000000E+03
 1.563288691E+03	 4.579000000E+03
 1.563801082E+03	 4.564799805E+03
 1.564313419E+03	 4.574200195E+03
 1.564825701E+03	 4.541600098E+03
 1.565337929E+03	 4.517399902E+03
 1.565850103E+03	 4.538600098E+03
 1.566362223E+03	 4.529799805E+03
 1.566874288E+03	 4.505399902E+03
 1.567386299E+03	 4.551399902E+03
 1.567898256E+03	 4.555799805E+03
 1.568410158E+03	 4.551600098E+03
 1.568922007E+03	 4.535000000E+03
 1.569433800E+03	 4.511799805E+03
 1.569945540E+03	 4.514000000E+03
 1.570457226E+03	 4.551399902E+03
 1.570968857E+03	 4.563600098E+03
 1.571480434E+03	 4.543200195E+03
 1.571991956E+03	 4.537200195E+03
 1.572503425E+03	 4.525399902E+03
 1.573014839E+03	 4.530600098E+03
 1.573526199E+03	 4.539600098E+03
 1.574037505E+03	 4.533399902E+03
 1.574548756E+03	 4.503799805E+03
 1.575059953E+03	 4.491799805E+03
 1.575571096E+03	 4.540799805E+03
 1.576082185E+03	 4.510200195E+03
 1.576593220E+03	 4.555399902E+03
 1.577104200E+03	 4.518799805E+03
 1.577615126E+03	 4.514399902E+03
 1.578125998E+03	 4.527799805E+03
 1.578636816E+03	 4.504600098E+03
 1.579147580E+03	 4.525600098E+03
 1.579658289E+03	 4.519399902E+03
 1.580168944E+03	 4.545000000E+03
 1.580679545E+03	 4.480600098E+03
 1.581190092E+03	 4.500600098E+03
 1.581700585E+03	 4.488799805E+03
 1.582211023E+03	 4.497200195E+03
 1.582721407E+03	 4.526799805E+03
 1.583231737E+03	 4.494000000E+03
 1.583742013E+03	 4.486200195E+03
 1.584252235E+03	 4.469200195E+03
 1.584762403E+03	 4.516000000E+03
 1.585272516E+03	 4.518200195E+03
 1.585782575E+03	 4.503399902E+03
 1.586292581E+03	 4.469799805E+03
 1.586802532E+03	 4.470000000E+03
 1.587312428E+03	 4.495799805E+03
 1.587822271E+03	 4.485600098E+03
 1.588332060E+03	 4.515200195E+03
 1.588841794E+03	 4.472799805E+03
 1.589351474E+03	 4.494000000E+03
 1.589861100E+03	 4.454399902E+03
 1.590370672E+03	 4.490799805E+03
 1.590880190E+03	 4.442200195E+03
 1.591389654E+03	 4.506399902E+03
 1.591899064E+03	 4.499200195E+03
 1.592408419E+03	 4.480600098E+03
