 1.042452273E+03	 8.108399902E+03
 1.043018714E+03	 8.143799805E+03
 1.043585098E+03	 8.067000000E+03
 1.044151424E+03	 8.172600098E+03
 1.044717692E+03	 8.081600098E+03
 1.045283903E+03	 8.163200195E+03
 1.045850056E+03	 8.106399902E+03
 1.046416151E+03	 8.127200195E+03
 1.046982188E+03	 8.091399902E+03
 1.047548167E+03	 8.055000000E+03
 1.048114089E+03	 8.039399902E+03
 1.048679953E+03	 8.124399902E+03
 1.049245760E+03	 8.068399902E+03
 1.049811509E+03	 8.110600098E+03
 1.050377200E+03	 8.019799805E+03
 1.050942833E+03	 8.076600098E+03
 1.051508408E+03	 8.033399902E+03
 1.052073926E+03	 8.046600098E+03
 1.052639387E+03	 8.095200195E+03
 1.053204789E+03	 8.037200195E+03
 1.053770134E+03	 8.038799805E+03
 1.054335421E+03	 8.077799805E+03
 1.054900651E+03	 8.054200195E+03
 1.055465823E+03	 8.010200195E+03
 1.056030937E+03	 8.050600098E+03
 1.056595993E+03	 8.021200195E+03
 1.057160992E+03	 8.044200195E+03
 1.057725934E+03	 8.022000000E+03
 1.058290817E+03	 8.027600098E+03
 1.058855643E+03	 7.978200195E+03
 1.059420411E+03	 7.993399902E+03
 1.059985122E+03	 7.974399902E+03
 1.060549775E+03	 7.994200195E+03
 1.061114371E+03	 7.989000000E+03
 1.061678908E+03	 8.021200195E+03
 1.062243389E+03	 7.973000000E+03
 1.062807811E+03	 8.007399902E+03
 1.063372176E+03	 7.955600098E+03
 1.063936483E+03	 7.991200195E+03
 1.064500733E+03	 7.925000000E+03
 1.065064925E+03	 7.963200195E+03
 1.065629060E+03	 7.932399902E+03
 1.066193137E+03	 7.988000000E+03
 1.066757156E+03	 7.880399902E+03
 1.067321118E+03	 7.974600098E+03
 1.067885022E+03	 7.901200195E+03
 1.068448869E+03	 7.965000000E+03
 1.069012658E+03	 7.928399902E+03
 1.069576390E+03	 7.941799805E+03
 1.070140063E+03	 7.865600098E+03
 1.070703680E+03	 7.876000000E+03
 1.071267239E+03	 7.890200195E+03
 1.071830740E+03	 7.915799805E+03
 1.072394184E+03	 7.873200195E+03
 1.072957570E+03	 7.923799805E+03
 1.073520899E+03	 7.842399902E+03
 1.074084170E+03	 7.899200195E+03
 1.074647383E+03	 7.834399902E+03
 1.075210540E+03	 7.837200195E+03
 1.075773638E+03	 7.776799805E+03
 1.076336679E+03	 7.896000000E+03
 1.076899663E+03	 7.838200195E+03
 1.077462589E+03	 7.822200195E+03
 1.078025457E+03	 7.799200195E+03
 1.078588268E+03	 7.887000000E+03
 1.079151022E+03	 7.843000000E+03
 1.079713718E+03	 7.844000000E+03
 1.080276356E+03	 7.806200195E+03
 1.080838937E+03	 7.804200195E+03
 1.081401461E+03	 7.749399902E+03
 1.081963927E+03	 7.780799805E+03
 1.082526336E+03	 7.786399902E+03
 1.083088687E+03	 7.828000000E+03
 1.083650981E+03	 7.733200195E+03
 1.084213217E+03	 7.758200195E+03
 1.084775396E+03	 7.715600098E+03
 1.085337517E+03	 7.755799805E+03
 1.085899581E+03	 7.694000000E+03
 1.086461587E+03	 7.779600098E+03
 1.087023536E+03	 7.674799805E+03
 1.087585428E+03	 7.756399902E+03
 1.088147262E+03	 7.701000000E+03
 1.088709039E+03	 7.694399902E+03
 1.089270758E+03	 7.637799805E+03
 1.089832420E+03	 7.703200195E+03
 1.090394024E+03	 7.664200195E+03
 1.090955571E+03	 7.639000000E+03
 1.091517061E+03	 7.580000000E+03
 1.092078493E+03	 7.640600098E+03
 1.092639868E+03	 7.570200195E+03
 1.093201185E+03	 7.634200195E+03
 1.093762445E+03	 7.579399902E+03
 1.094323648E+03	 7.667799805E+03
 1.094884793E+03	 7.609000000E+03
 1.095445881E+03	 7.631000000E+03
 1.096006911E+03	 7.521000000E+03
 1.096567884E+03	 7.590399902E+03
 1.097128800E+03	 7.548799805E+03
 1.097689659E+03	 7.591799805E+03
 1.098250460E+03	 7.509799805E+03
 1.098811203E+03	 7.614000000E+03
 1.099371890E+03	 7.517000000E+03
 1.099932518E+03	 7.586399902E+03
 1.100493090E+03	 7.522200195E+03
 1.101053604E+03	 7.559200195E+03
 1.101614061E+03	 7.469200195E+03
 1.102174461E+03	 7.526000000E+03
 1.102734803E+03	 7.485000000E+03
 1.103295088E+03	 7.511600098E+03
 1.103855316E+03	 7.421600098E+03
 1.104415486E+03	 7.467600098E+03
 1.104975599E+03	 7.415799805E+03
 1.105535655E+03	 7.471000000E+03
 1.106095653E+03	 7.406000000E+03
 1.106655594E+03	 7.478600098E+03
 1.107215478E+03	 7.361600098E+03
 1.107775305E+03	 7.403600098E+03
 1.108335074E+03	 7.392200195E+03
 1.108894786E+03	 7.424200195E+03
 1.109454440E+03	 7.329600098E+03
 1.110014038E+03	 7.452799805E+03
 1.110573578E+03	 7.341799805E+03
 1.111133061E+03	 7.417799805E+03
 1.111692486E+03	 7.326799805E+03
 1.112251854E+03	 7.428200195E+03
 1.112811165E+03	 7.307799805E+03
 1.113370419E+03	 7.366799805E+03
 1.113929616E+03	 7.313000000E+03
 1.114488755E+03	 7.348200195E+03
 1.115047837E+03	 7.300600098E+03
 1.115606862E+03	 7.340000000E+03
 1.116165830E+03	 7.275600098E+03
 1.116724740E+03	 7.362799805E+03
 1.117283593E+03	 7.314799805E+03
 1.117842389E+03	 7.319000000E+03
 1.118401128E+03	 7.260799805E+03
 1.118959809E+03	 7.349799805E+03
 1.119518433E+03	 7.287600098E+03
 1.120077000E+03	 7.313000000E+03
 1.120635510E+03	 7.297000000E+03
 1.121193963E+03	 7.278799805E+03
 1.121752358E+03	 7.257200195E+03
 1.122310697E+03	 7.315600098E+03
 1.122868978E+03	 7.256799805E+03
 1.123427202E+03	 7.279000000E+03
 1.123985368E+03	 7.261200195E+03
 1.124543478E+03	 7.222799805E+03
 1.125101530E+03	 7.225000000E+03
 1.125659526E+03	 7.267000000E+03
 1.126217464E+03	 7.256600098E+03
 1.126775345E+03	 7.272000000E+03
 1.127333168E+03	 7.278600098E+03
 1.127890935E+03	 7.232200195E+03
 1.128448644E+03	 7.217200195E+03
 1.129006297E+03	 7.255600098E+03
 1.129563892E+03	 7.224399902E+03
 1.130121430E+03	 7.199600098E+03
 1.130678911E+03	 7.207799805E+03
 1.131236335E+03	 7.208200195E+03
 1.131793701E+03	 7.250600098E+03
 1.132351011E+03	 7.208600098E+03
 1.132908263E+03	 7.211600098E+03
 1.133465458E+03	 7.192000000E+03
 1.134022597E+03	 7.195000000E+03
 1.134579678E+03	 7.219200195E+03
 1.135136702E+03	 7.196600098E+03
 1.135693669E+03	 7.198000000E+03
 1.136250578E+03	 7.225600098E+03
 1.136807431E+03	 7.181799805E+03
 1.137364227E+03	 7.194200195E+03
 1.137920965E+03	 7.186200195E+03
 1.138477647E+03	 7.186200195E+03
 1.139034271E+03	 7.191399902E+03
 1.139590839E+03	 7.196799805E+03
 1.140147349E+03	 7.135799805E+03
 1.140703802E+03	 7.194000000E+03
 1.141260198E+03	 7.159799805E+03
 1.141816537E+03	 7.257600098E+03
 1.142372820E+03	 7.192200195E+03
 1.142929045E+03	 7.229600098E+03
 1.143485213E+03	 7.147000000E+03
 1.144041323E+03	 7.197200195E+03
 1.144597377E+03	 7.136799805E+03
 1.145153374E+03	 7.215399902E+03
 1.145709314E+03	 7.151399902E+03
 1.146265197E+03	 7.213200195E+03
 1.146821023E+03	 7.172399902E+03
 1.147376792E+03	 7.221200195E+03
 1.147932503E+03	 7.169200195E+03
 1.148488158E+03	 7.149799805E+03
 1.149043756E+03	 7.148000000E+03
 1.149599297E+03	 7.192799805E+03
 1.150154781E+03	 7.134799805E+03
 1.150710207E+03	 7.211600098E+03
 1.151265577E+03	 7.169000000E+03
 1.151820890E+03	 7.231399902E+03
 1.152376146E+03	 7.170000000E+03
 1.152931345E+03	 7.229000000E+03
 1.153486487E+03	 7.129399902E+03
 1.154041572E+03	 7.139799805E+03
 1.154596600E+03	 7.149200195E+03
 1.155151571E+03	 7.216600098E+03
 1.155706485E+03	 7.148799805E+03
 1.156261342E+03	 7.204399902E+03
 1.156816142E+03	 7.126799805E+03
 1.157370885E+03	 7.152600098E+03
 1.157925572E+03	 7.152000000E+03
 1.158480201E+03	 7.211600098E+03
 1.159034774E+03	 7.122000000E+03
 1.159589289E+03	 7.180200195E+03
 1.160143748E+03	 7.116799805E+03
 1.160698149E+03	 7.145799805E+03
 1.161252494E+03	 7.118000000E+03
 1.161806782E+03	 7.162399902E+03
 1.162361013E+03	 7.108799805E+03
 1.162915187E+03	 7.137200195E+03
 1.163469304E+03	 7.162000000E+03
 1.164023364E+03	 7.175799805E+03
 1.164577368E+03	 7.117200195E+03
 1.165131314E+03	 7.123399902E+03
 1.165685204E+03	 7.087799805E+03
 1.166239036E+03	 7.137000000E+03
 1.166792812E+03	 7.098200195E+03
 1.167346531E+03	 7.165799805E+03
 1.167900193E+03	 7.098200195E+03
 1.168453798E+03	 7.082000000E+03
 1.169007347E+03	 7.060399902E+03
 1.169560838E+03	 7.119200195E+03
 1.170114273E+03	 7.113600098E+03
 1.170667650E+03	 7.129799805E+03
 1.171220971E+03	 7.063000000E+03
 1.171774235E+03	 7.084000000E+03
 1.172327443E+03	 7.070399902E+03
 1.172880593E+03	 7.116200195E+03
 1.173433687E+03	 7.120200195E+03
 1.173986723E+03	 7.066000000E+03
 1.174539703E+03	 7.087600098E+03
 1.175092626E+03	 7.037200195E+03
 1.175645493E+03	 7.061600098E+03
 1.176198302E+03	 7.048399902E+03
 1.176751055E+03	 7.031399902E+03
 1.177303751E+03	 7.049000000E+03
 1.177856390E+03	 7.075399902E+03
 1.178408972E+03	 7.081200195E+03
 1.178961498E+03	 7.058600098E+03
 1.179513966E+03	 7.008799805E+03
 1.180066378E+03	 7.036200195E+03
 1.180618733E+03	 6.970000000E+03
 1.181171032E+03	 7.045600098E+03
 1.181723273E+03	 6.962200195E+03
 1.182275458E+03	 7.045600098E+03
 1.182827586E+03	 6.959200195E+03
 1.183379657E+03	 7.012600098E+03
 1.183931672E+03	 6.983000000E+03
 1.184483630E+03	 7.042799805E+03
 1.185035531E+03	 6.979200195E+03
 1.185587375E+03	 7.009600098E+03
 1.186139162E+03	 6.986399902E+03
 1.186690893E+03	 6.953799805E+03
 1.187242567E+03	 6.996600098E+03
 1.187794184E+03	 6.965000000E+03
 1.188345745E+03	 6.963399902E+03
 1.188897249E+03	 6.983799805E+03
 1.189448696E+03	 6.974600098E+03
 1.190000086E+03	 6.992000000E+03
 1.190551420E+03	 6.895600098E+03
 1.191102697E+03	 6.930799805E+03
 1.191653918E+03	 6.941799805E+03
 1.192205081E+03	 6.967000000E+03
 1.192756188E+03	 6.925799805E+03
 1.193307238E+03	 6.972600098E+03
 1.193858232E+03	 6.901000000E+03
 1.194409169E+03	 6.917200195E+03
 1.194960049E+03	 6.944600098E+03
 1.195510872E+03	 6.952399902E+03
 1.196061639E+03	 6.908799805E+03
 1.196612349E+03	 6.923600098E+03
 1.197163003E+03	 6.903200195E+03
 1.197713599E+03	 6.865799805E+03
 1.198264139E+03	 6.910600098E+03
 1.198814623E+03	 6.883000000E+03
 1.199365050E+03	 6.881000000E+03
 1.199915420E+03	 6.871600098E+03
 1.200465734E+03	 6.887200195E+03
 1.201015990E+03	 6.868799805E+03
 1.201566191E+03	 6.893799805E+03
 1.202116334E+03	 6.872399902E+03
 1.202666421E+03	 6.887200195E+03
 1.203216452E+03	 6.886600098E+03
 1.203766425E+03	 6.824799805E+03
 1.204316343E+03	 6.825200195E+03
 1.204866203E+03	 6.807399902E+03
 1.205416007E+03	 6.827799805E+03
 1.205965754E+03	 6.847000000E+03
 1.206515445E+03	 6.799799805E+03
 1.207065079E+03	 6.824200195E+03
 1.207614657E+03	 6.782799805E+03
 1.208164177E+03	 6.810799805E+03
 1.208713642E+03	 6.823399902E+03
 1.209263050E+03	 6.779399902E+03
 1.209812401E+03	 6.798200195E+03
 1.210361695E+03	 6.791600098E+03
 1.210910933E+03	 6.779600098E+03
 1.211460115E+03	 6.792200195E+03
 1.212009240E+03	 6.742799805E+03
 1.212558308E+03	 6.791399902E+03
 1.213107320E+03	 6.769799805E+03
 1.213656275E+03	 6.762000000E+03
 1.214205174E+03	 6.762799805E+03
 1.214754016E+03	 6.790600098E+03
 1.215302801E+03	 6.731399902E+03
 1.215851530E+03	 6.759799805E+03
 1.216400203E+03	 6.770000000E+03
 1.216948819E+03	 6.709399902E+03
 1.217497378E+03	 6.705600098E+03
 1.218045881E+03	 6.705000000E+03
 1.218594327E+03	 6.719399902E+03
 1.219142717E+03	 6.709000000E+03
 1.219691051E+03	 6.712000000E+03
 1.220239327E+03	 6.709600098E+03
 1.220787548E+03	 6.688600098E+03
 1.221335712E+03	 6.706000000E+03
 1.221883819E+03	 6.662000000E+03
 1.222431870E+03	 6.720399902E+03
 1.222979864E+03	 6.699799805E+03
 1.223527802E+03	 6.669600098E+03
 1.224075683E+03	 6.641000000E+03
 1.224623508E+03	 6.690600098E+03
 1.225171277E+03	 6.648399902E+03
 1.225718989E+03	 6.684399902E+03
 1.226266644E+03	 6.683399902E+03
 1.226814243E+03	 6.648200195E+03
 1.227361786E+03	 6.666600098E+03
 1.227909272E+03	 6.667799805E+03
 1.228456702E+03	 6.636399902E+03
 1.229004075E+03	 6.683000000E+03
 1.229551392E+03	 6.657799805E+03
 1.230098652E+03	 6.639000000E+03
 1.230645856E+03	 6.669200195E+03
 1.231193003E+03	 6.639200195E+03
 1.231740094E+03	 6.605600098E+03
 1.232287129E+03	 6.634000000E+03
 1.232834107E+03	 6.644799805E+03
 1.233381029E+03	 6.596399902E+03
 1.233927894E+03	 6.599600098E+03
 1.234474703E+03	 6.612000000E+03
 1.235021455E+03	 6.600200195E+03
 1.235568151E+03	 6.663799805E+03
 1.236114791E+03	 6.597200195E+03
 1.236661374E+03	 6.595200195E+03
 1.237207901E+03	 6.612000000E+03
 1.237754372E+03	 6.602000000E+03
 1.238300786E+03	 6.586399902E+03
 1.238847144E+03	 6.619799805E+03
 1.239393445E+03	 6.575399902E+03
 1.239939690E+03	 6.587399902E+03
 1.240485879E+03	 6.563600098E+03
 1.241032011E+03	 6.583600098E+03
 1.241578087E+03	 6.645600098E+03
 1.242124106E+03	 6.552600098E+03
 1.242670070E+03	 6.574000000E+03
 1.243215976E+03	 6.557600098E+03
 1.243761827E+03	 6.599399902E+03
 1.244307621E+03	 6.529200195E+03
 1.244853359E+03	 6.584399902E+03
 1.245399040E+03	 6.555200195E+03
 1.245944665E+03	 6.559000000E+03
 1.246490234E+03	 6.520600098E+03
 1.247035746E+03	 6.533799805E+03
 1.247581203E+03	 6.534399902E+03
 1.248126602E+03	 6.511000000E+03
 1.248671946E+03	 6.569000000E+03
 1.249217233E+03	 6.528600098E+03
 1.249762464E+03	 6.509799805E+03
 1.250307638E+03	 6.528000000E+03
 1.250852757E+03	 6.516000000E+03
 1.251397819E+03	 6.532799805E+03
 1.251942824E+03	 6.545200195E+03
 1.252487774E+03	 6.558399902E+03
 1.253032667E+03	 6.508600098E+03
 1.253577503E+03	 6.520399902E+03
 1.254122284E+03	 6.489399902E+03
 1.254667008E+03	 6.481799805E+03
 1.255211676E+03	 6.518200195E+03
 1.255756288E+03	 6.476399902E+03
 1.256300843E+03	 6.474600098E+03
 1.256845342E+03	 6.512399902E+03
 1.257389785E+03	 6.495399902E+03
 1.257934172E+03	 6.491600098E+03
 1.258478502E+03	 6.518600098E+03
 1.259022776E+03	 6.473799805E+03
 1.259566994E+03	 6.476200195E+03
 1.260111156E+03	 6.494399902E+03
 1.260655261E+03	 6.492200195E+03
 1.261199311E+03	 6.505799805E+03
 1.261743304E+03	 6.474200195E+03
 1.262287240E+03	 6.438799805E+03
 1.262831121E+03	 6.485000000E+03
 1.263374945E+03	 6.466600098E+03
 1.263918713E+03	 6.496200195E+03
 1.264462425E+03	 6.478000000E+03
 1.265006081E+03	 6.525399902E+03
 1.265549680E+03	 6.495799805E+03
 1.266093223E+03	 6.507200195E+03
 1.266636711E+03	 6.451799805E+03
 1.267180141E+03	 6.455600098E+03
 1.267723516E+03	 6.445399902E+03
 1.268266835E+03	 6.466600098E+03
 1.268810097E+03	 6.456799805E+03
 1.269353303E+03	 6.411799805E+03
 1.269896453E+03	 6.375799805E+03
 1.270439547E+03	 6.442200195E+03
 1.270982584E+03	 6.419600098E+03
 1.271525566E+03	 6.434000000E+03
 1.272068491E+03	 6.415399902E+03
 1.272611360E+03	 6.391799805E+03
 1.273154173E+03	 6.409600098E+03
 1.273696930E+03	 6.430399902E+03
 1.274239631E+03	 6.359600098E+03
 1.274782275E+03	 6.394600098E+03
 1.275324864E+03	 6.416399902E+03
 1.275867396E+03	 6.402399902E+03
 1.276409872E+03	 6.388600098E+03
 1.276952292E+03	 6.415399902E+03
 1.277494656E+03	 6.396200195E+03
 1.278036964E+03	 6.403000000E+03
 1.278579215E+03	 6.397000000E+03
 1.279121411E+03	 6.394200195E+03
 1.279663550E+03	 6.352600098E+03
 1.280205634E+03	 6.366200195E+03
 1.280747661E+03	 6.398600098E+03
 1.281289632E+03	 6.348000000E+03
 1.281831547E+03	 6.383200195E+03
 1.282373406E+03	 6.363799805E+03
 1.282915209E+03	 6.406600098E+03
 1.283456955E+03	 6.392399902E+03
 1.283998646E+03	 6.404000000E+03
 1.284540281E+03	 6.487399902E+03
 1.285081859E+03	 6.922200195E+03
 1.285623381E+03	 7.442399902E+03
 1.286164848E+03	 6.949000000E+03
 1.286706258E+03	 6.497600098E+03
 1.287247612E+03	 6.395200195E+03
 1.287788911E+03	 6.370600098E+03
 1.288330153E+03	 6.370799805E+03
 1.288871339E+03	 6.316000000E+03
 1.289412469E+03	 6.343399902E+03
 1.289953543E+03	 6.330600098E+03
 1.290494561E+03	 6.331799805E+03
 1.291035523E+03	 6.295000000E+03
 1.291576428E+03	 6.322799805E+03
 1.292117278E+03	 6.285799805E+03
 1.292658072E+03	 6.317200195E+03
 1.293198810E+03	 6.280200195E+03
 1.293739492E+03	 6.305200195E+03
 1.294280118E+03	 6.279399902E+03
 1.294820687E+03	 6.284000000E+03
 1.295361201E+03	 6.327200195E+03
 1.295901659E+03	 6.250600098E+03
 1.296442061E+03	 6.312200195E+03
 1.296982406E+03	 6.232000000E+03
 1.297522696E+03	 6.316200195E+03
 1.298062930E+03	 6.266799805E+03
 1.298603108E+03	 6.279799805E+03
 1.299143229E+03	 6.241200195E+03
 1.299683295E+03	 6.224200195E+03
 1.300223305E+03	 6.189600098E+03
 1.300763259E+03	 6.238799805E+03
 1.301303157E+03	 6.188600098E+03
 1.301842999E+03	 6.233000000E+03
 1.302382785E+03	 6.203799805E+03
 1.302922515E+03	 6.229000000E+03
 1.303462189E+03	 6.211399902E+03
 1.304001807E+03	 6.212000000E+03
 1.304541369E+03	 6.232000000E+03
 1.305080875E+03	 6.233200195E+03
 1.305620326E+03	 6.222399902E+03
 1.306159720E+03	 6.195200195E+03
 1.306699058E+03	 6.166799805E+03
 1.307238341E+03	 6.179600098E+03
 1.307777567E+03	 6.201399902E+03
 1.308316738E+03	 6.173799805E+03
 1.308855853E+03	 6.177000000E+03
 1.309394912E+03	 6.189200195E+03
 1.309933915E+03	 6.199399902E+03
 1.310472862E+03	 6.143399902E+03
 1.311011753E+03	 6.189799805E+03
 1.311550588E+03	 6.123600098E+03
 1.312089367E+03	 6.164600098E+03
 1.312628090E+03	 6.160799805E+03
 1.313166758E+03	 6.163600098E+03
 1.313705370E+03	 6.164399902E+03
 1.314243925E+03	 6.173399902E+03
 1.314782425E+03	 6.138000000E+03
 1.315320869E+03	 6.146200195E+03
 1.315859257E+03	 6.138799805E+03
 1.316397589E+03	 6.117600098E+03
 1.316935866E+03	 6.152200195E+03
 1.317474086E+03	 6.132399902E+03
 1.318012251E+03	 6.156399902E+03
 1.318550360E+03	 6.100799805E+03
 1.319088413E+03	 6.136399902E+03
 1.319626410E+03	 6.097399902E+03
 1.320164351E+03	 6.089000000E+03
 1.320702236E+03	 6.103399902E+03
 1.321240066E+03	 6.120799805E+03
 1.321777839E+03	 6.073399902E+03
 1.322315557E+03	 6.106600098E+03
 1.322853219E+03	 6.119799805E+03
 1.323390826E+03	 6.128000000E+03
 1.323928376E+03	 6.091000000E+03
 1.324465871E+03	 6.109799805E+03
 1.325003309E+03	 6.087600098E+03
 1.325540692E+03	 6.071200195E+03
 1.326078020E+03	 6.107399902E+03
 1.326615291E+03	 6.135799805E+03
 1.327152506E+03	 6.059399902E+03
 1.327689666E+03	 6.052200195E+03
 1.328226770E+03	 6.091000000E+03
 1.328763818E+03	 6.043000000E+03
 1.329300811E+03	 6.056799805E+03
 1.329837747E+03	 6.100600098E+03
 1.330374628E+03	 6.091200195E+03
 1.330911453E+03	 6.052600098E+03
 1.331448222E+03	 6.066200195E+03
 1.331984936E+03	 5.993600098E+03
 1.332521594E+03	 6.051200195E+03
 1.333058196E+03	 6.020600098E+03
 1.333594742E+03	 6.052799805E+03
 1.334131232E+03	 5.973399902E+03
 1.334667667E+03	 6.047399902E+03
 1.335204046E+03	 6.034399902E+03
 1.335740369E+03	 6.018600098E+03
 1.336276637E+03	 6.001000000E+03
 1.336812848E+03	 6.005799805E+03
 1.337349004E+03	 6.023799805E+03
 1.337885105E+03	 6.086799805E+03
 1.338421149E+03	 6.034000000E+03
 1.338957138E+03	 6.000200195E+03
 1.339493071E+03	 6.010799805E+03
 1.340028949E+03	 5.984200195E+03
 1.340564770E+03	 6.037600098E+03
 1.341100536E+03	 5.969399902E+03
 1.341636246E+03	 6.015200195E+03
 1.342171901E+03	 6.002200195E+03
 1.342707500E+03	 6.004600098E+03
 1.343243043E+03	 5.968399902E+03
 1.343778530E+03	 6.019799805E+03
 1.344313962E+03	 5.975399902E+03
 1.344849338E+03	 6.002200195E+03
 1.345384659E+03	 5.986200195E+03
 1.345919923E+03	 5.991000000E+03
 1.346455133E+03	 5.940600098E+03
 1.346990286E+03	 5.971600098E+03
 1.347525384E+03	 5.930000000E+03
 1.348060426E+03	 5.975600098E+03
 1.348595412E+03	 5.973399902E+03
 1.349130343E+03	 5.960000000E+03
 1.349665218E+03	 5.958200195E+03
 1.350200037E+03	 5.946000000E+03
 1.350734801E+03	 5.969799805E+03
 1.351269509E+03	 5.913200195E+03
 1.351804162E+03	 5.959200195E+03
 1.352338758E+03	 5.909600098E+03
 1.352873300E+03	 5.939200195E+03
 1.353407785E+03	 5.927200195E+03
 1.353942215E+03	 5.905600098E+03
 1.354476589E+03	 5.956799805E+03
 1.355010908E+03	 5.990600098E+03
 1.355545171E+03	 5.917600098E+03
 1.356079379E+03	 5.904200195E+03
 1.356613530E+03	 5.924399902E+03
 1.357147627E+03	 5.929399902E+03
 1.357681667E+03	 5.900600098E+03
 1.358215652E+03	 5.879000000E+03
 1.358749582E+03	 5.933000000E+03
 1.359283456E+03	 5.905600098E+03
 1.359817274E+03	 5.930799805E+03
 1.360351037E+03	 5.863600098E+03
 1.360884744E+03	 5.917200195E+03
 1.361418395E+03	 5.874200195E+03
 1.361951991E+03	 5.900600098E+03
 1.362485531E+03	 5.865799805E+03
 1.363019016E+03	 5.877799805E+03
 1.363552445E+03	 5.880799805E+03
 1.364085819E+03	 5.883799805E+03
 1.364619137E+03	 5.901399902E+03
 1.365152400E+03	 5.881200195E+03
 1.365685607E+03	 5.865600098E+03
 1.366218758E+03	 5.890600098E+03
 1.366751854E+03	 5.898600098E+03
 1.367284894E+03	 5.912799805E+03
 1.367817879E+03	 5.909399902E+03
 1.368350808E+03	 5.836600098E+03
 1.368883682E+03	 5.845799805E+03
 1.369416500E+03	 5.870799805E+03
 1.369949263E+03	 5.867600098E+03
 1.370481970E+03	 5.860600098E+03
 1.371014622E+03	 5.914399902E+03
 1.371547218E+03	 5.855000000E+03
 1.372079758E+03	 5.886200195E+03
 1.372612244E+03	 5.868200195E+03
 1.373144673E+03	 5.912000000E+03
 1.373677047E+03	 5.836600098E+03
 1.374209366E+03	 5.859600098E+03
 1.374741629E+03	 5.819799805E+03
 1.375273836E+03	 5.811600098E+03
 1.375805989E+03	 5.822399902E+03
 1.376338085E+03	 5.893799805E+03
 1.376870126E+03	 5.819600098E+03
 1.377402112E+03	 5.828000000E+03
 1.377934042E+03	 5.855000000E+03
 1.378465917E+03	 5.817200195E+03
 1.378997736E+03	 5.811600098E+03
 1.379529500E+03	 5.799000000E+03
 1.380061208E+03	 5.813000000E+03
 1.380592861E+03	 5.792000000E+03
 1.381124459E+03	 5.849799805E+03
 1.381656000E+03	 5.806200195E+03
 1.382187487E+03	 5.807000000E+03
 1.382718918E+03	 5.792399902E+03
 1.383250294E+03	 5.828600098E+03
 1.383781614E+03	 5.788399902E+03
 1.384312879E+03	 5.827600098E+03
 1.384844088E+03	 5.796799805E+03
 1.385375242E+03	 5.782799805E+03
 1.385906340E+03	 5.804399902E+03
 1.386437383E+03	 5.829799805E+03
 1.386968371E+03	 5.860600098E+03
 1.387499303E+03	 5.897200195E+03
 1.388030180E+03	 6.141799805E+03
 1.388561001E+03	 7.163000000E+03
 1.389091767E+03	 7.608399902E+03
 1.389622478E+03	 6.253600098E+03
 1.390153133E+03	 5.851799805E+03
 1.390683733E+03	 5.780799805E+03
 1.391214277E+03	 5.802600098E+03
 1.391744766E+03	 5.767799805E+03
 1.392275200E+03	 5.769799805E+03
 1.392805578E+03	 5.743200195E+03
 1.393335901E+03	 5.765200195E+03
 1.393866168E+03	 5.779200195E+03
 1.394396381E+03	 5.771000000E+03
 1.394926537E+03	 5.741799805E+03
 1.395456639E+03	 5.753000000E+03
 1.395986685E+03	 5.746000000E+03
 1.396516675E+03	 5.735200195E+03
 1.397046611E+03	 5.791799805E+03
 1.397576491E+03	 5.718799805E+03
 1.398106315E+03	 5.767000000E+03
 1.398636084E+03	 5.724000000E+03
 1.399165798E+03	 5.765000000E+03
 1.399695457E+03	 5.712200195E+03
 1.400225060E+03	 5.729200195E+03
 1.400754608E+03	 5.713000000E+03
 1.401284101E+03	 5.714200195E+03
 1.401813538E+03	 5.694200195E+03
 1.402342920E+03	 5.725000000E+03
 1.402872247E+03	 5.727399902E+03
 1.403401518E+03	 5.724200195E+03
 1.403930734E+03	 5.728600098E+03
 1.404459895E+03	 5.709399902E+03
 1.404989000E+03	 5.740799805E+03
 1.405518050E+03	 5.706000000E+03
 1.406047045E+03	 5.702200195E+03
 1.406575984E+03	 5.720200195E+03
 1.407104869E+03	 5.741600098E+03
 1.407633697E+03	 5.689399902E+03
 1.408162471E+03	 5.722399902E+03
 1.408691189E+03	 5.717000000E+03
 1.409219852E+03	 5.708200195E+03
 1.409748460E+03	 5.751200195E+03
 1.410277013E+03	 5.833799805E+03
 1.410805510E+03	 5.756600098E+03
 1.411333952E+03	 5.688600098E+03
 1.411862339E+03	 5.711000000E+03
 1.412390670E+03	 5.642799805E+03
 1.412918946E+03	 5.683600098E+03
 1.413447167E+03	 5.618600098E+03
 1.413975333E+03	 5.676799805E+03
 1.414503444E+03	 5.647399902E+03
 1.415031499E+03	 5.676399902E+03
 1.415559499E+03	 5.691600098E+03
 1.416087444E+03	 5.658000000E+03
 1.416615333E+03	 5.615600098E+03
 1.417143167E+03	 5.703399902E+03
 1.417670947E+03	 5.621799805E+03
 1.418198670E+03	 5.630200195E+03
 1.418726339E+03	 5.645399902E+03
 1.419253952E+03	 5.628200195E+03
 1.419781511E+03	 5.661600098E+03
 1.420309014E+03	 5.627200195E+03
 1.420836461E+03	 5.635799805E+03
 1.421363854E+03	 5.641600098E+03
 1.421891191E+03	 5.682399902E+03
 1.422418474E+03	 5.605200195E+03
 1.422945701E+03	 5.627000000E+03
 1.423472872E+03	 5.611000000E+03
 1.423999989E+03	 5.620399902E+03
 1.424527050E+03	 5.623200195E+03
 1.425054057E+03	 5.680000000E+03
 1.425581008E+03	 5.648200195E+03
 1.426107904E+03	 5.676600098E+03
 1.426634745E+03	 5.636399902E+03
 1.427161530E+03	 5.607000000E+03
 1.427688261E+03	 5.655200195E+03
 1.428214936E+03	 5.646399902E+03
 1.428741556E+03	 5.628600098E+03
 1.429268121E+03	 5.603399902E+03
 1.429794631E+03	 5.623799805E+03
 1.430321085E+03	 5.610399902E+03
 1.430847485E+03	 5.620000000E+03
 1.431373829E+03	 5.558000000E+03
 1.431900118E+03	 5.592399902E+03
 1.432426353E+03	 5.551200195E+03
 1.432952532E+03	 5.573200195E+03
 1.433478655E+03	 5.532600098E+03
 1.434004724E+03	 5.569200195E+03
 1.434530738E+03	 5.608200195E+03
 1.435056696E+03	 5.567399902E+03
 1.435582600E+03	 5.569399902E+03
 1.436108448E+03	 5.570200195E+03
 1.436634241E+03	 5.564000000E+03
 1.437159979E+03	 5.557600098E+03
 1.437685662E+03	 5.601000000E+03
 1.438211290E+03	 5.551600098E+03
 1.438736863E+03	 5.565399902E+03
 1.439262381E+03	 5.524600098E+03
 1.439787843E+03	 5.535600098E+03
 1.440313251E+03	 5.539799805E+03
 1.440838603E+03	 5.523799805E+03
 1.441363900E+03	 5.558600098E+03
 1.441889143E+03	 5.514000000E+03
 1.442414330E+03	 5.525399902E+03
 1.442939462E+03	 5.548600098E+03
 1.443464539E+03	 5.490399902E+03
 1.443989561E+03	 5.540399902E+03
 1.444514528E+03	 5.528600098E+03
 1.445039440E+03	 5.499000000E+03
 1.445564297E+03	 5.479399902E+03
 1.446089099E+03	 5.481200195E+03
 1.446613846E+03	 5.464799805E+03
 1.447138537E+03	 5.520200195E+03
 1.447663174E+03	 5.496399902E+03
 1.448187756E+03	 5.471600098E+03
 1.448712282E+03	 5.478200195E+03
 1.449236754E+03	 5.507399902E+03
 1.449761171E+03	 5.498600098E+03
 1.450285532E+03	 5.495000000E+03
 1.450809839E+03	 5.498799805E+03
 1.451334090E+03	 5.477000000E+03
 1.451858287E+03	 5.464600098E+03
 1.452382428E+03	 5.485000000E+03
 1.452906515E+03	 5.478000000E+03
 1.453430546E+03	 5.463600098E+03
 1.453954523E+03	 5.484000000E+03
 1.454478444E+03	 5.440399902E+03
 1.455002311E+03	 5.464600098E+03
 1.455526123E+03	 5.485600098E+03
 1.456049879E+03	 5.472399902E+03
 1.456573581E+03	 5.453200195E+03
 1.457097227E+03	 5.449600098E+03
 1.457620819E+03	 5.458200195E+03
 1.458144356E+03	 5.446399902E+03
 1.458667837E+03	 5.446799805E+03
 1.459191264E+03	 5.431200195E+03
 1.459714636E+03	 5.461399902E+03
 1.460237952E+03	 5.441600098E+03
 1.460761214E+03	 5.419000000E+03
 1.461284421E+03	 5.443000000E+03
 1.461807573E+03	 5.456399902E+03
 1.462330670E+03	 5.390399902E+03
 1.462853712E+03	 5.444000000E+03
 1.463376699E+03	 5.421799805E+03
 1.463899632E+03	 5.433200195E+03
 1.464422509E+03	 5.420600098E+03
 1.464945331E+03	 5.446399902E+03
 1.465468099E+03	 5.463000000E+03
 1.465990811E+03	 5.410200195E+03
 1.466513469E+03	 5.443200195E+03
 1.467036071E+03	 5.389799805E+03
 1.467558619E+03	 5.417600098E+03
 1.468081112E+03	 5.407799805E+03
 1.468603550E+03	 5.459399902E+03
 1.469125933E+03	 5.387399902E+03
 1.469648261E+03	 5.411399902E+03
 1.470170534E+03	 5.401000000E+03
 1.470692752E+03	 5.389000000E+03
 1.471214916E+03	 5.386000000E+03
 1.471737024E+03	 5.368200195E+03
 1.472259078E+03	 5.404399902E+03
 1.472781077E+03	 5.422799805E+03
 1.473303021E+03	 5.391799805E+03
 1.473824910E+03	 5.400200195E+03
 1.474346744E+03	 5.421799805E+03
 1.474868523E+03	 5.337200195E+03
 1.475390248E+03	 5.375600098E+03
 1.475911917E+03	 5.360000000E+03
 1.476433532E+03	 5.360600098E+03
 1.476955092E+03	 5.377799805E+03
 1.477476597E+03	 5.375600098E+03
 1.477998047E+03	 5.373000000E+03
 1.478519442E+03	 5.361600098E+03
 1.479040783E+03	 5.379799805E+03
 1.479562068E+03	 5.320200195E+03
 1.480083299E+03	 5.356399902E+03
 1.480604475E+03	 5.343399902E+03
 1.481125596E+03	 5.373200195E+03
 1.481646663E+03	 5.307399902E+03
 1.482167674E+03	 5.327200195E+03
 1.482688631E+03	 5.315799805E+03
 1.483209533E+03	 5.308399902E+03
 1.483730380E+03	 5.296600098E+03
 1.484251172E+03	 5.292399902E+03
 1.484771909E+03	 5.355600098E+03
 1.485292592E+03	 5.351399902E+03
 1.485813220E+03	 5.330399902E+03
 1.486333793E+03	 5.272799805E+03
 1.486854311E+03	 5.307600098E+03
 1.487374775E+03	 5.323000000E+03
 1.487895183E+03	 5.301600098E+03
 1.488415537E+03	 5.273600098E+03
 1.488935836E+03	 5.296200195E+03
 1.489456081E+03	 5.291399902E+03
 1.489976270E+03	 5.300399902E+03
 1.490496405E+03	 5.311200195E+03
 1.491016485E+03	 5.285399902E+03
 1.491536511E+03	 5.306600098E+03
 1.492056481E+03	 5.269799805E+03
 1.492576397E+03	 5.261000000E+03
 1.493096258E+03	 5.299200195E+03
 1.493616064E+03	 5.264600098E+03
 1.494135816E+03	 5.244399902E+03
 1.494655513E+03	 5.269000000E+03
 1.495175155E+03	 5.257600098E+03
 1.495694742E+03	 5.212000000E+03
 1.496214274E+03	 5.252000000E+03
 1.496733752E+03	 5.248399902E+03
 1.497253175E+03	 5.272600098E+03
 1.497772544E+03	 5.308600098E+03
 1.498291858E+03	 5.280000000E+03
 1.498811116E+03	 5.252000000E+03
 1.499330321E+03	 5.251600098E+03
 1.499849470E+03	 5.252200195E+03
 1.500368565E+03	 5.283200195E+03
 1.500887605E+03	 5.265000000E+03
 1.501406591E+03	 5.213799805E+03
 1.501925521E+03	 5.230399902E+03
 1.502444397E+03	 5.212399902E+03
 1.502963219E+03	 5.215000000E+03
 1.503481985E+03	 5.209399902E+03
 1.504000697E+03	 5.257799805E+03
 1.504519355E+03	 5.235600098E+03
 1.505037957E+03	 5.221799805E+03
 1.505556505E+03	 5.204399902E+03
 1.506074999E+03	 5.204000000E+03
 1.506593437E+03	 5.217200195E+03
 1.507111821E+03	 5.185600098E+03
 1.507630150E+03	 5.190600098E+03
 1.508148425E+03	 5.196799805E+03
 1.508666645E+03	 5.187200195E+03
 1.509184810E+03	 5.157000000E+03
 1.509702921E+03	 5.152399902E+03
 1.510220977E+03	 5.180200195E+03
 1.510738979E+03	 5.182799805E+03
 1.511256925E+03	 5.217000000E+03
 1.511774817E+03	 5.207600098E+03
 1.512292655E+03	 5.157399902E+03
 1.512810438E+03	 5.213399902E+03
 1.513328166E+03	 5.172000000E+03
 1.513845840E+03	 5.180799805E+03
 1.514363459E+03	 5.132600098E+03
 1.514881023E+03	 5.161000000E+03
 1.515398533E+03	 5.167799805E+03
 1.515915988E+03	 5.159600098E+03
 1.516433389E+03	 5.144399902E+03
 1.516950734E+03	 5.184600098E+03
 1.517468026E+03	 5.187799805E+03
 1.517985263E+03	 5.139000000E+03
 1.518502445E+03	 5.196799805E+03
 1.519019572E+03	 5.147000000E+03
 1.519536645E+03	 5.138799805E+03
 1.520053664E+03	 5.150000000E+03
 1.520570628E+03	 5.144399902E+03
 1.521087537E+03	 5.121000000E+03
 1.521604392E+03	 5.129600098E+03
 1.522121192E+03	 5.123000000E+03
 1.522637937E+03	 5.153200195E+03
 1.523154628E+03	 5.137000000E+03
 1.523671265E+03	 5.128200195E+03
 1.524187847E+03	 5.128200195E+03
 1.524704374E+03	 5.139200195E+03
 1.525220847E+03	 5.121600098E+03
 1.525737265E+03	 5.120200195E+03
 1.526253629E+03	 5.148200195E+03
 1.526769938E+03	 5.112200195E+03
 1.527286192E+03	 5.128399902E+03
 1.527802392E+03	 5.131799805E+03
 1.528318538E+03	 5.125600098E+03
 1.528834629E+03	 5.128600098E+03
 1.529350666E+03	 5.125600098E+03
 1.529866648E+03	 5.095399902E+03
 1.530382575E+03	 5.113600098E+03
 1.530898448E+03	 5.103000000E+03
 1.531414266E+03	 5.109799805E+03
 1.531930030E+03	 5.117799805E+03
 1.532445740E+03	 5.112399902E+03
 1.532961395E+03	 5.118799805E+03
 1.533476995E+03	 5.098399902E+03
 1.533992541E+03	 5.114200195E+03
 1.534508033E+03	 5.069600098E+03
 1.535023470E+03	 5.096600098E+03
 1.535538852E+03	 5.080200195E+03
 1.536054180E+03	 5.094799805E+03
 1.536569454E+03	 5.108000000E+03
 1.537084673E+03	 5.089200195E+03
 1.537599837E+03	 5.102799805E+03
 1.538114947E+03	 5.093600098E+03
 1.538630003E+03	 5.113000000E+03
 1.539145004E+03	 5.065000000E+03
 1.539659951E+03	 5.094200195E+03
 1.540174843E+03	 5.080399902E+03
 1.540689681E+03	 5.083799805E+03
 1.541204465E+03	 5.056600098E+03
 1.541719194E+03	 5.090200195E+03
 1.542233868E+03	 5.076399902E+03
 1.542748488E+03	 5.097000000E+03
 1.543263054E+03	 5.055200195E+03
 1.543777565E+03	 5.107799805E+03
 1.544292022E+03	 5.142000000E+03
 1.544806424E+03	 5.051000000E+03
 1.545320772E+03	 5.099000000E+03
 1.545835066E+03	 5.102600098E+03
 1.546349305E+03	 5.049600098E+03
 1.546863489E+03	 5.028600098E+03
 1.547377620E+03	 5.123600098E+03
 1.547891696E+03	 5.034000000E+03
 1.548405717E+03	 5.058600098E+03
 1.548919684E+03	 5.096799805E+03
 1.549433597E+03	 5.038200195E+03
 1.549947455E+03	 5.078799805E+03
 1.550461259E+03	 5.066000000E+03
 1.550975009E+03	 5.061200195E+03
 1.551488704E+03	 5.047399902E+03
 1.552002345E+03	 5.070000000E+03
 1.552515931E+03	 5.057600098E+03
 1.553029463E+03	 5.037000000E+03
 1.553542941E+03	 5.060600098E+03
 1.554056364E+03	 5.087000000E+03
 1.554569733E+03	 5.069000000E+03
 1.555083048E+03	 5.054799805E+03
 1.555596308E+03	 5.017000000E+03
 1.556109514E+03	 5.042600098E+03
 1.556622665E+03	 5.060200195E+03
 1.557135762E+03	 5.031600098E+03
 1.557648805E+03	 5.046799805E+03
 1.558161794E+03	 5.043799805E+03
 1.558674728E+03	 5.035000000E+03
 1.559187608E+03	 5.032200195E+03
 1.559700433E+03	 5.050200195E+03
 1.560213205E+03	 5.031799805E+03
 1.560725921E+03	 5.017600098E+03
 1.561238584E+03	 5.024200195E+03
 1.561751192E+03	 5.030600098E+03
 1.562263746E+03	 5.037799805E+03
 1.562776246E+03	 5.040000000E+03
 1.563288691E+03	 5.052399902E+03
 1.563801082E+03	 4.998000000E+03
 1.564313419E+03	 5.037799805E+03
 1.564825701E+03	 4.996799805E+03
 1.565337929E+03	 5.050000000E+03
 1.565850103E+03	 5.047399902E+03
 1.566362223E+03	 5.050600098E+03
 1.566874288E+03	 5.019399902E+03
 1.567386299E+03	 5.044600098E+03
 1.567898256E+03	 5.031600098E+03
 1.568410158E+03	 5.002399902E+03
 1.568922007E+03	 5.002000000E+03
 1.569433800E+03	 4.996200195E+03
 1.569945540E+03	 5.011000000E+03
 1.570457226E+03	 5.010399902E+03
 1.570968857E+03	 5.023399902E+03
 1.571480434E+03	 5.040399902E+03
 1.571991956E+03	 4.997600098E+03
 1.572503425E+03	 5.043000000E+03
 1.573014839E+03	 4.985200195E+03
 1.573526199E+03	 5.034799805E+03
 1.574037505E+03	 5.018000000E+03
 1.574548756E+03	 4.994000000E+03
 1.575059953E+03	 5.021399902E+03
 1.575571096E+03	 5.020000000E+03
 1.576082185E+03	 4.987799805E+03
 1.576593220E+03	 5.033600098E+03
 1.577104200E+03	 5.011000000E+03
 1.577615126E+03	 4.994600098E+03
 1.578125998E+03	 5.001399902E+03
 1.578636816E+03	 4.975399902E+03
 1.579147580E+03	 4.988399902E+03
 1.579658289E+03	 4.978200195E+03
 1.580168944E+03	 4.983399902E+03
 1.580679545E+03	 4.942000000E+03
 1.581190092E+03	 4.990600098E+03
 1.581700585E+03	 4.975600098E+03
 1.582211023E+03	 4.943600098E+03
 1.582721407E+03	 4.982000000E+03
 1.583231737E+03	 4.914399902E+03
 1.583742013E+03	 4.956799805E+03
 1.584252235E+03	 4.973799805E+03
 1.584762403E+03	 4.982000000E+03
 1.585272516E+03	 4.922200195E+03
 1.585782575E+03	 4.965000000E+03
 1.586292581E+03	 4.980600098E+03
 1.586802532E+03	 4.975799805E+03
 1.587312428E+03	 4.959000000E+03
 1.587822271E+03	 4.941000000E+03
 1.588332060E+03	 4.965399902E+03
 1.588841794E+03	 4.972799805E+03
 1.589351474E+03	 4.991600098E+03
 1.589861100E+03	 4.925399902E+03
 1.590370672E+03	 4.960000000E+03
 1.590880190E+03	 4.957600098E+03
 1.591389654E+03	 4.985799805E+03
 1.591899064E+03	 4.958399902E+03
 1.592408419E+03	 4.930000000E+03
