1043.018714	3180.800049
1043.585098	3184.199951
1044.151424	3189.0
1044.717692	3188.600098
1045.283903	3185.199951
1045.850056	3159.600098
1046.416151	3181.399902
1046.982188	3194.199951
1047.548167	3159.199951
1048.114089	3191.800049
1048.679953	3170.399902
1049.24576	3137.800049
1049.811509	3170.0
1050.3772	3179.0
1050.942833	3158.0
1051.508408	3158.199951
1052.073926	3149.199951
1052.639387	3157.800049
1053.204789	3157.199951
1053.770134	3182.800049
1054.335421	3152.600098
1054.900651	3151.399902
1055.465823	3141.800049
1056.030937	3163.399902
1056.595993	3161.0
1057.160992	3132.0
1057.725934	3181.399902
1058.290817	3157.399902
1058.855643	3132.199951
1059.420411	3152.0
1059.985122	3137.199951
1060.549775	3158.199951
1061.114371	3135.800049
1061.678908	3137.199951
1062.243389	3105.800049
1062.807811	3150.0
1063.372176	3136.199951
1063.936483	3137.800049
1064.500733	3104.800049
1065.064925	3113.0
1065.62906	3110.0
1066.193137	3137.0
1066.757156	3117.199951
1067.321118	3095.600098
1067.885022	3079.600098
1068.448869	3101.600098
1069.012658	3127.600098
1069.57639	3119.0
1070.140063	3107.0
1070.70368	3112.199951
1071.267239	3117.199951
1071.83074	3121.800049
1072.394184	3060.0
1072.95757	3091.600098
1073.520899	3078.600098
1074.08417	3086.399902
1074.647383	3097.199951
1075.21054	3080.399902
1075.773638	3070.800049
1076.336679	3105.399902
1076.899663	3057.399902
1077.462589	3087.600098
1078.025457	3035.199951
1078.588268	3084.600098
1079.151022	3060.199951
1079.713718	3055.399902
1080.276356	3061.199951
1080.838937	3081.600098
1081.401461	3040.0
1081.963927	3098.600098
1082.526336	3071.199951
1083.088687	3055.399902
1083.650981	3026.399902
1084.213217	3043.800049
1084.775396	3018.800049
1085.337517	3019.600098
1085.899581	3010.0
1086.461587	3050.800049
1087.023536	3013.600098
1087.585428	3050.800049
1088.147262	3001.600098
1088.709039	3061.399902
1089.270758	3002.199951
1089.83242	3037.600098
1090.394024	3023.0
1090.955571	3024.399902
1091.517061	3010.600098
1092.078493	2994.399902
1092.639868	2990.199951
1093.201185	3025.800049
1093.762445	3012.399902
1094.323648	3023.800049
1094.884793	2967.199951
1095.445881	3014.600098
1096.006911	2977.199951
1096.567884	3017.0
1097.1288	2964.399902
1097.689659	2992.0
1098.25046	2963.399902
1098.811203	2998.399902
1099.37189	2971.600098
1099.932518	3018.800049
1100.49309	2958.800049
1101.053604	2982.600098
1101.614061	2951.800049
1102.174461	2979.0
1102.734803	2928.600098
1103.295088	2970.0
1103.855316	2935.0
1104.415486	2983.0
1104.975599	2939.0
1105.535655	2951.399902
1106.095653	2920.600098
1106.655594	2932.399902
1107.215478	2916.399902
1107.775305	2939.800049
1108.335074	2916.399902
1108.894786	2952.800049
1109.45444	2897.399902
1110.014038	2948.399902
1110.573578	2919.0
1111.133061	2931.399902
1111.692486	2908.800049
1112.251854	2946.800049
1112.811165	2889.399902
1113.370419	2901.399902
1113.929616	2897.600098
1114.488755	2945.199951
1115.047837	2911.600098
1115.606862	2944.800049
1116.16583	2888.0
1116.72474	2896.800049
1117.283593	2896.0
1117.842389	2907.600098
1118.401128	2889.600098
1118.959809	2878.800049
1119.518433	2874.0
1120.077	2922.800049
1120.63551	2880.800049
1121.193963	2875.199951
1121.752358	2886.199951
1122.310697	2907.199951
1122.868978	2880.800049
1123.427202	2878.600098
1123.985368	2873.800049
1124.543478	2867.399902
1125.10153	2877.199951
1125.659526	2879.600098
1126.217464	2875.600098
1126.775345	2878.600098
1127.333168	2874.0
1127.890935	2896.399902
1128.448644	2855.199951
1129.006297	2910.0
1129.563892	2857.399902
1130.12143	2871.600098
1130.678911	2854.800049
1131.236335	2876.0
1131.793701	2851.199951
1132.351011	2862.199951
1132.908263	2866.399902
1133.465458	2828.0
1134.022597	2855.800049
1134.579678	2857.0
1135.136702	2833.0
1135.693669	2851.0
1136.250578	2866.800049
1136.807431	2874.199951
1137.364227	2874.0
1137.920965	2853.800049
1138.477647	2864.0
1139.034271	2844.199951
1139.590839	2845.600098
1140.147349	2833.800049
1140.703802	2843.399902
1141.260198	2839.600098
1141.816537	2856.0
1142.37282	2829.399902
1142.929045	2874.600098
1143.485213	2828.0
1144.041323	2836.600098
1144.597377	2847.199951
1145.153374	2862.600098
1145.709314	2809.199951
1146.265197	2839.800049
1146.821023	2838.0
1147.376792	2859.399902
1147.932503	2829.600098
1148.488158	2819.0
1149.043756	2800.800049
1149.599297	2828.800049
1150.154781	2818.199951
1150.710207	2856.399902
1151.265577	2841.399902
1151.82089	2831.399902
1152.376146	2834.600098
1152.931345	2847.600098
1153.486487	2832.0
1154.041572	2834.0
1154.5966	2824.199951
1155.151571	2854.800049
1155.706485	2813.199951
1156.261342	2870.600098
1156.816142	2834.800049
1157.370885	2845.399902
1157.925572	2806.199951
1158.480201	2845.199951
1159.034774	2821.0
1159.589289	2835.199951
1160.143748	2828.0
1160.698149	2841.199951
1161.252494	2826.399902
1161.806782	2826.199951
1162.361013	2806.600098
1162.915187	2810.199951
1163.469304	2826.800049
1164.023364	2811.600098
1164.577368	2794.0
1165.131314	2817.199951
1165.685204	2815.800049
1166.239036	2816.0
1166.792812	2807.199951
1167.346531	2824.600098
1167.900193	2781.399902
1168.453798	2823.600098
1169.007347	2792.0
1169.560838	2813.600098
1170.114273	2807.800049
1170.66765	2823.199951
1171.220971	2812.800049
1171.774235	2798.600098
1172.327443	2795.800049
1172.880593	2780.600098
1173.433687	2808.199951
1173.986723	2790.0
1174.539703	2801.600098
1175.092626	2782.0
1175.645493	2801.0
1176.198302	2777.600098
1176.751055	2797.600098
1177.303751	2814.0
1177.85639	2787.600098
1178.408972	2799.600098
1178.961498	2792.199951
1179.513966	2770.800049
1180.066378	2779.800049
1180.618733	2753.800049
1181.171032	2774.800049
1181.723273	2759.800049
1182.275458	2791.199951
1182.827586	2798.600098
1183.379657	2767.399902
1183.931672	2754.399902
1184.48363	2767.399902
1185.035531	2755.600098
1185.587375	2786.600098
1186.139162	2739.199951
1186.690893	2754.800049
1187.242567	2763.0
1187.794184	2775.0
1188.345745	2751.399902
1188.897249	2770.600098
1189.448696	2749.199951
1190.000086	2760.600098
1190.55142	2756.600098
1191.102697	2755.0
1191.653918	2754.199951
1192.205081	2735.0
1192.756188	2750.0
1193.307238	2777.399902
1193.858232	2746.800049
1194.409169	2742.0
1194.960049	2750.399902
1195.510872	2725.600098
1196.061639	2740.199951
1196.612349	2745.199951
1197.163003	2728.600098
1197.713599	2739.0
1198.264139	2751.399902
1198.814623	2724.199951
1199.36505	2729.0
1199.91542	2743.399902
1200.465734	2719.800049
1201.01599	2723.0
1201.566191	2728.800049
1202.116334	2710.399902
1202.666421	2720.600098
1203.216452	2715.600098
1203.766425	2729.600098
1204.316343	2682.600098
1204.866203	2708.399902
1205.416007	2716.399902
1205.965754	2706.199951
1206.515445	2714.800049
1207.065079	2681.800049
1207.614657	2674.399902
1208.164177	2704.0
1208.713642	2689.199951
1209.26305	2684.800049
1209.812401	2703.600098
1210.361695	2697.0
1210.910933	2693.199951
1211.460115	2676.600098
1212.00924	2670.399902
1212.558308	2675.600098
1213.10732	2699.600098
1213.656275	2681.800049
1214.205174	2693.800049
1214.754016	2684.199951
1215.302801	2669.800049
1215.85153	2683.399902
1216.400203	2675.800049
1216.948819	2677.399902
1217.497378	2671.800049
1218.045881	2657.199951
1218.594327	2685.800049
1219.142717	2667.0
1219.691051	2655.199951
1220.239327	2670.600098
1220.787548	2672.600098
1221.335712	2675.199951
1221.883819	2648.0
1222.43187	2656.199951
1222.979864	2663.600098
1223.527802	2665.800049
1224.075683	2668.800049
1224.623508	2641.0
1225.171277	2646.800049
1225.718989	2636.199951
1226.266644	2644.199951
1226.814243	2652.199951
1227.361786	2622.399902
1227.909272	2639.0
1228.456702	2636.600098
1229.004075	2624.600098
1229.551392	2629.800049
1230.098652	2653.800049
1230.645856	2631.0
1231.193003	2626.800049
1231.740094	2631.0
1232.287129	2622.199951
1232.834107	2624.0
1233.381029	2606.600098
1233.927894	2632.399902
1234.474703	2622.800049
1235.021455	2643.199951
1235.568151	2638.399902
1236.114791	2632.399902
1236.661374	2598.0
1237.207901	2622.0
1237.754372	2620.199951
1238.300786	2609.399902
1238.847144	2607.600098
1239.393445	2617.199951
1239.93969	2615.600098
1240.485879	2610.399902
1241.032011	2623.399902
1241.578087	2603.600098
1242.124106	2619.199951
1242.67007	2589.600098
1243.215976	2599.600098
1243.761827	2608.800049
1244.307621	2598.0
1244.853359	2608.800049
1245.39904	2638.0
1245.944665	2596.199951
1246.490234	2611.800049
1247.035746	2592.0
1247.581203	2579.0
1248.126602	2591.399902
1248.671946	2590.199951
1249.217233	2599.600098
1249.762464	2580.199951
1250.307638	2602.600098
1250.852757	2592.199951
1251.397819	2598.399902
1251.942824	2591.199951
1252.487774	2592.399902
1253.032667	2585.800049
1253.577503	2588.600098
1254.122284	2570.600098
1254.667008	2575.0
1255.211676	2565.600098
1255.756288	2591.0
1256.300843	2584.399902
1256.845342	2558.0
1257.389785	2553.0
1257.934172	2560.0
1258.478502	2582.199951
1259.022776	2568.800049
1259.566994	2575.600098
1260.111156	2586.800049
1260.655261	2557.0
1261.199311	2548.0
1261.743304	2560.600098
1262.28724	2559.600098
1262.831121	2549.399902
1263.374945	2559.800049
1263.918713	2554.600098
1264.462425	2560.800049
1265.006081	2591.0
1265.54968	2573.0
1266.093223	2576.199951
1266.636711	2560.600098
1267.180141	2572.199951
1267.723516	2553.0
1268.266835	2554.199951
1268.810097	2547.800049
1269.353303	2538.399902
1269.896453	2562.800049
1270.439547	2541.800049
1270.982584	2538.800049
1271.525566	2546.399902
1272.068491	2524.0
1272.61136	2558.399902
1273.154173	2553.800049
1273.69693	2544.600098
1274.239631	2516.800049
1274.782275	2534.0
1275.324864	2532.600098
1275.867396	2536.600098
1276.409872	2538.0
1276.952292	2537.600098
1277.494656	2525.199951
1278.036964	2546.399902
1278.579215	2511.399902
1279.121411	2504.0
1279.66355	2518.199951
1280.205634	2537.399902
1280.747661	2513.800049
1281.289632	2525.0
1281.831547	2511.0
1282.373406	2527.399902
1282.915209	2526.600098
1283.456955	2516.199951
1283.998646	2527.199951
1284.540281	2559.600098
1285.081859	2682.800049
1285.623381	2888.0
1286.164848	2725.0
1286.706258	2551.600098
1287.247612	2533.199951
1287.788911	2507.600098
1288.330153	2506.800049
1288.871339	2500.0
1289.412469	2510.600098
1289.953543	2519.199951
1290.494561	2484.600098
1291.035523	2505.399902
1291.576428	2485.0
1292.117278	2511.0
1292.658072	2484.600098
1293.19881	2483.800049
1293.739492	2490.0
1294.280118	2491.199951
1294.820687	2508.399902
1295.361201	2487.600098
1295.901659	2470.0
1296.442061	2488.0
1296.982406	2487.800049
1297.522696	2474.600098
1298.06293	2472.399902
1298.603108	2460.199951
1299.143229	2464.600098
1299.683295	2463.600098
1300.223305	2471.0
1300.763259	2470.199951
1301.303157	2467.800049
1301.842999	2463.800049
1302.382785	2474.199951
1302.922515	2470.399902
1303.462189	2491.199951
1304.001807	2452.800049
1304.541369	2443.0
1305.080875	2455.600098
1305.620326	2473.800049
1306.15972	2447.199951
1306.699058	2464.199951
1307.238341	2462.399902
1307.777567	2469.600098
1308.316738	2463.800049
1308.855853	2448.199951
1309.394912	2439.800049
1309.933915	2452.800049
1310.472862	2426.199951
1311.011753	2454.199951
1311.550588	2424.199951
1312.089367	2455.399902
1312.62809	2436.600098
1313.166758	2420.800049
1313.70537	2429.600098
1314.243925	2467.199951
1314.782425	2429.0
1315.320869	2435.0
1315.859257	2428.800049
1316.397589	2443.800049
1316.935866	2433.199951
1317.474086	2416.199951
1318.012251	2433.600098
1318.55036	2424.199951
1319.088413	2423.399902
1319.62641	2423.800049
1320.164351	2410.800049
1320.702236	2417.399902
1321.240066	2412.399902
1321.777839	2438.600098
1322.315557	2403.199951
1322.853219	2418.399902
1323.390826	2420.600098
1323.928376	2420.0
1324.465871	2415.0
1325.003309	2425.199951
1325.540692	2411.600098
1326.07802	2422.399902
1326.615291	2413.399902
1327.152506	2395.0
1327.689666	2396.199951
1328.22677	2411.0
1328.763818	2405.399902
1329.300811	2407.199951
1329.837747	2392.800049
1330.374628	2407.600098
1330.911453	2385.399902
1331.448222	2415.800049
1331.984936	2401.199951
1332.521594	2411.199951
1333.058196	2389.600098
1333.594742	2383.600098
1334.131232	2404.399902
1334.667667	2406.800049
1335.204046	2374.600098
1335.740369	2392.399902
1336.276637	2409.199951
1336.812848	2364.399902
1337.349004	2389.600098
1337.885105	2386.0
1338.421149	2370.399902
1338.957138	2382.600098
1339.493071	2374.399902
1340.028949	2355.399902
1340.56477	2398.800049
1341.100536	2376.199951
1341.636246	2370.399902
1342.171901	2387.0
1342.7075	2399.399902
1343.243043	2387.800049
1343.77853	2354.399902
1344.313962	2340.600098
1344.849338	2380.399902
1345.384659	2367.399902
1345.919923	2359.399902
1346.455133	2362.0
1346.990286	2363.0
1347.525384	2359.199951
1348.060426	2358.600098
1348.595412	2365.199951
1349.130343	2367.600098
1349.665218	2367.800049
1350.200037	2373.399902
1350.734801	2380.600098
1351.269509	2347.600098
1351.804162	2363.399902
1352.338758	2346.800049
1352.8733	2378.399902
1353.407785	2326.800049
1353.942215	2372.199951
1354.476589	2342.800049
1355.010908	2362.0
1355.545171	2330.199951
1356.079379	2335.0
1356.61353	2327.199951
1357.147627	2362.399902
1357.681667	2338.399902
1358.215652	2336.800049
1358.749582	2321.0
1359.283456	2332.800049
1359.817274	2364.199951
1360.351037	2331.199951
1360.884744	2344.800049
1361.418395	2334.600098
1361.951991	2330.399902
1362.485531	2338.600098
1363.019016	2330.0
1363.552445	2344.399902
1364.085819	2330.199951
1364.619137	2318.399902
1365.1524	2332.199951
1365.685607	2315.800049
1366.218758	2330.600098
1366.751854	2310.0
1367.284894	2329.399902
1367.817879	2317.399902
1368.350808	2318.0
1368.883682	2321.0
1369.4165	2307.0
1369.949263	2318.199951
1370.48197	2333.199951
1371.014622	2319.0
1371.547218	2309.0
1372.079758	2324.399902
1372.612244	2304.0
1373.144673	2330.399902
1373.677047	2302.0
1374.209366	2314.0
1374.741629	2281.0
1375.273836	2317.800049
1375.805989	2296.199951
1376.338085	2295.600098
1376.870126	2296.399902
1377.402112	2296.0
1377.934042	2297.800049
1378.465917	2313.199951
1378.997736	2314.199951
1379.5295	2285.600098
1380.061208	2320.199951
1380.592861	2277.600098
1381.124459	2284.199951
1381.656	2293.399902
1382.187487	2315.600098
1382.718918	2294.0
1383.250294	2299.199951
1383.781614	2290.399902
1384.312879	2294.0
1384.844088	2293.0
1385.375242	2302.199951
1385.90634	2291.0
1386.437383	2291.399902
1386.968371	2304.199951
1387.499303	2307.800049
1388.03018	2375.0
1388.561001	2713.199951
1389.091767	2893.399902
1389.622478	2445.399902
1390.153133	2326.0
1390.683733	2282.399902
1391.214277	2288.199951
1391.744766	2266.800049
1392.2752	2259.800049
1392.805578	2262.0
1393.335901	2288.199951
1393.866168	2265.199951
1394.396381	2275.399902
1394.926537	2280.399902
1395.456639	2269.199951
1395.986685	2254.600098
1396.516675	2255.399902
1397.046611	2277.800049
1397.576491	2256.399902
1398.106315	2275.399902
1398.636084	2255.399902
1399.165798	2269.399902
1399.695457	2235.199951
1400.22506	2275.0
1400.754608	2252.800049
1401.284101	2246.199951
1401.813538	2251.800049
1402.34292	2247.399902
1402.872247	2269.399902
1403.401518	2254.399902
1403.930734	2242.600098
1404.459895	2253.0
1404.989	2251.399902
1405.51805	2256.800049
1406.047045	2243.199951
1406.575984	2237.399902
1407.104869	2262.399902
1407.633697	2240.399902
1408.162471	2256.399902
1408.691189	2227.199951
1409.219852	2259.399902
1409.74846	2270.600098
1410.277013	2282.600098
1410.80551	2260.399902
1411.333952	2261.0
1411.862339	2263.399902
1412.39067	2234.600098
1412.918946	2232.199951
1413.447167	2260.399902
1413.975333	2222.399902
1414.503444	2217.199951
1415.031499	2233.199951
1415.559499	2239.0
1416.087444	2237.199951
1416.615333	2231.800049
1417.143167	2228.399902
1417.670947	2245.800049
1418.19867	2229.0
1418.726339	2214.600098
1419.253952	2229.199951
1419.781511	2210.800049
1420.309014	2228.399902
1420.836461	2222.0
1421.363854	2224.800049
1421.891191	2218.0
1422.418474	2237.600098
1422.945701	2238.800049
1423.472872	2216.0
1423.999989	2219.0
1424.52705	2217.399902
1425.054057	2243.399902
1425.581008	2229.199951
1426.107904	2232.199951
1426.634745	2232.399902
1427.16153	2217.199951
1427.688261	2227.600098
1428.214936	2220.399902
1428.741556	2214.600098
1429.268121	2219.600098
1429.794631	2228.199951
1430.321085	2206.800049
1430.847485	2238.800049
1431.373829	2221.0
1431.900118	2225.800049
1432.426353	2225.0
1432.952532	2213.199951
1433.478655	2209.800049
1434.004724	2202.600098
1434.530738	2197.800049
1435.056696	2185.600098
1435.5826	2209.0
1436.108448	2204.399902
1436.634241	2189.0
1437.159979	2197.0
1437.685662	2200.199951
1438.21129	2187.199951
1438.736863	2204.0
1439.262381	2205.0
1439.787843	2193.800049
1440.313251	2194.600098
1440.838603	2161.600098
1441.3639	2185.600098
1441.889143	2190.600098
1442.41433	2179.800049
1442.939462	2181.600098
1443.464539	2182.399902
1443.989561	2186.199951
1444.514528	2178.199951
1445.03944	2173.0
1445.564297	2164.199951
1446.089099	2169.0
1446.613846	2171.199951
1447.138537	2166.800049
1447.663174	2166.199951
1448.187756	2165.199951
1448.712282	2169.800049
1449.236754	2179.399902
1449.761171	2166.800049
1450.285532	2163.800049
1450.809839	2141.399902
1451.33409	2144.399902
1451.858287	2165.199951
1452.382428	2168.199951
1452.906515	2176.800049
1453.430546	2157.399902
1453.954523	2146.0
1454.478444	2152.399902
1455.002311	2175.600098
1455.526123	2154.600098
1456.049879	2162.800049
1456.573581	2163.399902
1457.097227	2172.0
1457.620819	2155.399902
1458.144356	2163.199951
1458.667837	2175.800049
1459.191264	2169.399902
1459.714636	2162.0
1460.237952	2141.399902
1460.761214	2172.399902
1461.284421	2149.199951
1461.807573	2141.800049
1462.33067	2163.199951
1462.853712	2133.600098
1463.376699	2160.600098
1463.899632	2133.0
1464.422509	2148.399902
1464.945331	2134.0
1465.468099	2155.399902
1465.990811	2147.800049
1466.513469	2131.199951
1467.036071	2140.600098
1467.558619	2136.600098
1468.081112	2131.0
1468.60355	2162.199951
1469.125933	2141.0
1469.648261	2142.0
1470.170534	2130.800049
1470.692752	2127.399902
1471.214916	2130.800049
1471.737024	2110.0
1472.259078	2124.199951
1472.781077	2138.600098
1473.303021	2145.0
1473.82491	2121.600098
1474.346744	2131.800049
1474.868523	2119.0
1475.390248	2123.0
1475.911917	2118.600098
1476.433532	2107.800049
1476.955092	2114.800049
1477.476597	2109.600098
1477.998047	2124.600098
1478.519442	2130.199951
1479.040783	2111.600098
1479.562068	2111.199951
1480.083299	2122.399902
1480.604475	2110.399902
1481.125596	2100.399902
1481.646663	2104.199951
1482.167674	2116.600098
1482.688631	2106.800049
1483.209533	2104.800049
1483.73038	2114.399902
1484.251172	2117.399902
1484.771909	2095.199951
1485.292592	2112.800049
1485.81322	2110.0
1486.333793	2099.0
1486.854311	2116.600098
1487.374775	2117.399902
1487.895183	2096.600098
1488.415537	2104.399902
1488.935836	2117.399902
1489.456081	2088.600098
1489.97627	2099.600098
1490.496405	2083.600098
1491.016485	2101.199951
1491.536511	2100.399902
1492.056481	2080.600098
1492.576397	2091.199951
1493.096258	2093.600098
1493.616064	2084.600098
1494.135816	2083.600098
1494.655513	2090.199951
1495.175155	2092.399902
1495.694742	2076.800049
1496.214274	2064.600098
1496.733752	2070.800049
1497.253175	2110.399902
1497.772544	2090.199951
1498.291858	2059.0
1498.811116	2090.199951
1499.330321	2083.600098
1499.84947	2088.800049
1500.368565	2076.800049
1500.887605	2080.399902
1501.406591	2088.800049
1501.925521	2063.199951
1502.444397	2087.0
1502.963219	2067.399902
1503.481985	2068.600098
1504.000697	2071.800049
1504.519355	2078.199951
1505.037957	2081.399902
1505.556505	2048.600098
1506.074999	2083.399902
1506.593437	2070.600098
1507.111821	2044.800049
1507.63015	2061.0
1508.148425	2069.399902
1508.666645	2057.199951
1509.18481	2061.399902
1509.702921	2068.199951
1510.220977	2073.600098
1510.738979	2078.600098
1511.256925	2052.800049
1511.774817	2066.600098
1512.292655	2069.800049
1512.810438	2055.399902
1513.328166	2055.0
1513.84584	2051.399902
1514.363459	2053.0
1514.881023	2067.199951
1515.398533	2040.800049
1515.915988	2062.800049
1516.433389	2069.600098
1516.950734	2052.199951
1517.468026	2066.199951
1517.985263	2048.199951
1518.502445	2073.199951
1519.019572	2065.0
1519.536645	2031.199951
1520.053664	2072.0
1520.570628	2042.0
1521.087537	2040.0
1521.604392	2054.800049
1522.121192	2070.600098
1522.637937	2042.400024
1523.154628	2055.800049
1523.671265	2063.399902
1524.187847	2049.0
1524.704374	2049.0
1525.220847	2037.599976
1525.737265	2037.800049
1526.253629	2046.0
1526.769938	2049.399902
1527.286192	2056.0
1527.802392	2057.800049
1528.318538	2041.400024
1528.834629	2044.599976
1529.350666	2038.400024
1529.866648	2017.0
1530.382575	2048.600098
1530.898448	2042.0
1531.414266	2045.0
1531.93003	2029.199951
1532.44574	2044.800049
1532.961395	2040.400024
1533.476995	2030.599976
1533.992541	2033.199951
1534.508033	2033.800049
1535.02347	2037.800049
1535.538852	2033.400024
1536.05418	2051.600098
1536.569454	2031.400024
1537.084673	2053.600098
1537.599837	2052.199951
1538.114947	2041.599976
1538.630003	2043.599976
1539.145004	2018.400024
1539.659951	2052.399902
1540.174843	2027.800049
1540.689681	2012.400024
1541.204465	2033.199951
1541.719194	2035.800049
1542.233868	2037.400024
1542.748488	2033.400024
1543.263054	2029.800049
1543.777565	2035.199951
1544.292022	2028.400024
1544.806424	2039.0
1545.320772	2040.0
1545.835066	2026.599976
1546.349305	2042.400024
1546.863489	2031.199951
1547.37762	2031.599976
1547.891696	2038.0
1548.405717	2015.199951
1548.919684	2028.599976
1549.433597	2005.599976
1549.947455	2024.400024
1550.461259	2017.599976
1550.975009	2036.199951
1551.488704	2021.400024
1552.002345	2011.800049
1552.515931	2024.599976
1553.029463	2039.400024
1553.542941	2029.400024
1554.056364	2038.599976
1554.569733	2035.0
1555.083048	2030.199951
1555.596308	2016.400024
1556.109514	2015.599976
1556.622665	2014.400024
1557.135762	2027.800049
1557.648805	2034.400024
1558.161794	2014.199951
1558.674728	2040.800049
1559.187608	2001.0
1559.700433	2010.0
1560.213205	2016.199951
1560.725921	2029.400024
1561.238584	2021.0
1561.751192	2030.800049
1562.263746	2018.599976
1562.776246	2011.400024
1563.288691	2034.199951
1563.801082	2018.800049
1564.313419	2032.800049
1564.825701	2017.800049
1565.337929	2011.599976
1565.850103	2013.199951
1566.362223	2016.800049
1566.874288	2006.0
1567.386299	1999.400024
1567.898256	2028.199951
1568.410158	2003.599976
1568.922007	2021.199951
1569.4338	2005.800049
1569.94554	2009.599976
1570.457226	2009.400024
1570.968857	2015.400024
1571.480434	1997.800049
1571.991956	2009.0
1572.503425	1999.800049
1573.014839	1984.800049
1573.526199	2006.0
1574.037505	2013.800049
1574.548756	2012.400024
1575.059953	1984.800049
1575.571096	2010.599976
1576.082185	1987.400024
1576.59322	2004.599976
1577.1042	2007.800049
1577.615126	1997.199951
1578.125998	2002.400024
1578.636816	2001.199951
1579.14758	1997.800049
1579.658289	1992.0
1580.168944	2016.199951
1580.679545	1961.400024
1581.190092	1993.400024
1581.700585	1992.400024
1582.211023	1994.599976
1582.721407	1981.599976
1583.231737	1985.400024
1583.742013	1980.199951
1584.252235	1984.199951
1584.762403	2003.800049
1585.272516	1990.0
1585.782575	2008.599976
1586.292581	2008.0
1586.802532	2005.199951
1587.312428	1985.199951
1587.822271	2008.599976
1588.33206	1987.0
1588.841794	1986.400024
1589.351474	1978.800049
1589.8611	1975.599976
1590.370672	1996.400024
1590.88019	1988.0
1591.389654	1995.599976
1591.899064	1996.400024
