 1.042452273E+03	 9.080200195E+03
 1.043018714E+03	 9.184200195E+03
 1.043585098E+03	 9.111599609E+03
 1.044151424E+03	 9.189000000E+03
 1.044717692E+03	 9.128799805E+03
 1.045283903E+03	 9.122000000E+03
 1.045850056E+03	 9.125000000E+03
 1.046416151E+03	 9.175200195E+03
 1.046982188E+03	 9.091799805E+03
 1.047548167E+03	 9.146799805E+03
 1.048114089E+03	 9.114400391E+03
 1.048679953E+03	 9.123000000E+03
 1.049245760E+03	 9.064000000E+03
 1.049811509E+03	 9.133000000E+03
 1.050377200E+03	 9.110799805E+03
 1.050942833E+03	 9.069000000E+03
 1.051508408E+03	 9.054000000E+03
 1.052073926E+03	 9.060000000E+03
 1.052639387E+03	 9.097400391E+03
 1.053204789E+03	 9.086799805E+03
 1.053770134E+03	 9.084000000E+03
 1.054335421E+03	 9.070799805E+03
 1.054900651E+03	 9.117000000E+03
 1.055465823E+03	 9.018000000E+03
 1.056030937E+03	 9.060400391E+03
 1.056595993E+03	 9.029200195E+03
 1.057160992E+03	 9.067200195E+03
 1.057725934E+03	 9.057400391E+03
 1.058290817E+03	 9.052000000E+03
 1.058855643E+03	 9.000799805E+03
 1.059420411E+03	 8.991200195E+03
 1.059985122E+03	 8.971000000E+03
 1.060549775E+03	 9.007000000E+03
 1.061114371E+03	 8.945200195E+03
 1.061678908E+03	 8.971400391E+03
 1.062243389E+03	 8.938400391E+03
 1.062807811E+03	 9.001799805E+03
 1.063372176E+03	 8.947799805E+03
 1.063936483E+03	 8.977000000E+03
 1.064500733E+03	 8.948799805E+03
 1.065064925E+03	 8.946000000E+03
 1.065629060E+03	 8.929200195E+03
 1.066193137E+03	 8.920000000E+03
 1.066757156E+03	 8.930400391E+03
 1.067321118E+03	 8.954799805E+03
 1.067885022E+03	 8.907599609E+03
 1.068448869E+03	 8.928000000E+03
 1.069012658E+03	 8.907599609E+03
 1.069576390E+03	 8.878400391E+03
 1.070140063E+03	 8.824200195E+03
 1.070703680E+03	 8.931200195E+03
 1.071267239E+03	 8.820400391E+03
 1.071830740E+03	 8.931400391E+03
 1.072394184E+03	 8.886000000E+03
 1.072957570E+03	 8.865400391E+03
 1.073520899E+03	 8.794799805E+03
 1.074084170E+03	 8.843000000E+03
 1.074647383E+03	 8.822200195E+03
 1.075210540E+03	 8.808400391E+03
 1.075773638E+03	 8.781200195E+03
 1.076336679E+03	 8.786400391E+03
 1.076899663E+03	 8.770599609E+03
 1.077462589E+03	 8.787200195E+03
 1.078025457E+03	 8.740400391E+03
 1.078588268E+03	 8.794400391E+03
 1.079151022E+03	 8.711599609E+03
 1.079713718E+03	 8.815000000E+03
 1.080276356E+03	 8.689799805E+03
 1.080838937E+03	 8.729799805E+03
 1.081401461E+03	 8.652599609E+03
 1.081963927E+03	 8.726599609E+03
 1.082526336E+03	 8.719400391E+03
 1.083088687E+03	 8.724200195E+03
 1.083650981E+03	 8.668599609E+03
 1.084213217E+03	 8.698400391E+03
 1.084775396E+03	 8.608599609E+03
 1.085337517E+03	 8.696599609E+03
 1.085899581E+03	 8.646599609E+03
 1.086461587E+03	 8.668000000E+03
 1.087023536E+03	 8.552400391E+03
 1.087585428E+03	 8.652200195E+03
 1.088147262E+03	 8.568599609E+03
 1.088709039E+03	 8.618599609E+03
 1.089270758E+03	 8.598799805E+03
 1.089832420E+03	 8.625400391E+03
 1.090394024E+03	 8.516400391E+03
 1.090955571E+03	 8.628799805E+03
 1.091517061E+03	 8.532400391E+03
 1.092078493E+03	 8.601799805E+03
 1.092639868E+03	 8.531000000E+03
 1.093201185E+03	 8.570200195E+03
 1.093762445E+03	 8.485599609E+03
 1.094323648E+03	 8.515400391E+03
 1.094884793E+03	 8.424799805E+03
 1.095445881E+03	 8.506799805E+03
 1.096006911E+03	 8.415799805E+03
 1.096567884E+03	 8.462799805E+03
 1.097128800E+03	 8.467200195E+03
 1.097689659E+03	 8.501400391E+03
 1.098250460E+03	 8.426200195E+03
 1.098811203E+03	 8.450599609E+03
 1.099371890E+03	 8.396000000E+03
 1.099932518E+03	 8.455799805E+03
 1.100493090E+03	 8.386799805E+03
 1.101053604E+03	 8.463400391E+03
 1.101614061E+03	 8.287000000E+03
 1.102174461E+03	 8.356599609E+03
 1.102734803E+03	 8.361000000E+03
 1.103295088E+03	 8.371200195E+03
 1.103855316E+03	 8.292200195E+03
 1.104415486E+03	 8.352400391E+03
 1.104975599E+03	 8.322400391E+03
 1.105535655E+03	 8.335400391E+03
 1.106095653E+03	 8.234400391E+03
 1.106655594E+03	 8.338599609E+03
 1.107215478E+03	 8.192799805E+03
 1.107775305E+03	 8.292400391E+03
 1.108335074E+03	 8.203000000E+03
 1.108894786E+03	 8.326200195E+03
 1.109454440E+03	 8.189200195E+03
 1.110014038E+03	 8.281799805E+03
 1.110573578E+03	 8.214799805E+03
 1.111133061E+03	 8.292400391E+03
 1.111692486E+03	 8.190000000E+03
 1.112251854E+03	 8.254000000E+03
 1.112811165E+03	 8.136799805E+03
 1.113370419E+03	 8.249400391E+03
 1.113929616E+03	 8.205000000E+03
 1.114488755E+03	 8.250000000E+03
 1.115047837E+03	 8.231200195E+03
 1.115606862E+03	 8.160200195E+03
 1.116165830E+03	 8.164799805E+03
 1.116724740E+03	 8.162799805E+03
 1.117283593E+03	 8.088200195E+03
 1.117842389E+03	 8.209799805E+03
 1.118401128E+03	 8.112000000E+03
 1.118959809E+03	 8.164200195E+03
 1.119518433E+03	 8.071600098E+03
 1.120077000E+03	 8.108799805E+03
 1.120635510E+03	 8.070799805E+03
 1.121193963E+03	 8.138399902E+03
 1.121752358E+03	 8.080799805E+03
 1.122310697E+03	 8.080000000E+03
 1.122868978E+03	 8.107799805E+03
 1.123427202E+03	 8.082000000E+03
 1.123985368E+03	 8.051399902E+03
 1.124543478E+03	 8.117600098E+03
 1.125101530E+03	 8.089600098E+03
 1.125659526E+03	 8.031799805E+03
 1.126217464E+03	 8.047399902E+03
 1.126775345E+03	 8.086799805E+03
 1.127333168E+03	 8.023200195E+03
 1.127890935E+03	 8.048000000E+03
 1.128448644E+03	 8.071000000E+03
 1.129006297E+03	 8.001000000E+03
 1.129563892E+03	 8.037200195E+03
 1.130121430E+03	 8.019399902E+03
 1.130678911E+03	 8.021600098E+03
 1.131236335E+03	 8.022200195E+03
 1.131793701E+03	 8.036600098E+03
 1.132351011E+03	 8.046600098E+03
 1.132908263E+03	 7.992000000E+03
 1.133465458E+03	 8.016399902E+03
 1.134022597E+03	 8.049200195E+03
 1.134579678E+03	 7.963799805E+03
 1.135136702E+03	 7.986600098E+03
 1.135693669E+03	 8.000000000E+03
 1.136250578E+03	 7.992000000E+03
 1.136807431E+03	 8.001399902E+03
 1.137364227E+03	 8.054000000E+03
 1.137920965E+03	 7.960399902E+03
 1.138477647E+03	 8.005399902E+03
 1.139034271E+03	 8.004399902E+03
 1.139590839E+03	 8.016399902E+03
 1.140147349E+03	 7.966600098E+03
 1.140703802E+03	 7.987600098E+03
 1.141260198E+03	 7.920399902E+03
 1.141816537E+03	 8.015799805E+03
 1.142372820E+03	 7.983200195E+03
 1.142929045E+03	 7.964000000E+03
 1.143485213E+03	 7.929200195E+03
 1.144041323E+03	 7.951799805E+03
 1.144597377E+03	 7.916600098E+03
 1.145153374E+03	 7.966799805E+03
 1.145709314E+03	 7.950000000E+03
 1.146265197E+03	 7.985799805E+03
 1.146821023E+03	 7.971600098E+03
 1.147376792E+03	 7.999799805E+03
 1.147932503E+03	 7.932799805E+03
 1.148488158E+03	 7.918000000E+03
 1.149043756E+03	 7.922200195E+03
 1.149599297E+03	 7.963799805E+03
 1.150154781E+03	 7.954200195E+03
 1.150710207E+03	 8.061600098E+03
 1.151265577E+03	 7.941000000E+03
 1.151820890E+03	 8.011399902E+03
 1.152376146E+03	 7.987399902E+03
 1.152931345E+03	 7.963600098E+03
 1.153486487E+03	 7.888200195E+03
 1.154041572E+03	 7.921200195E+03
 1.154596600E+03	 7.906200195E+03
 1.155151571E+03	 7.944799805E+03
 1.155706485E+03	 7.937600098E+03
 1.156261342E+03	 7.937399902E+03
 1.156816142E+03	 7.935000000E+03
 1.157370885E+03	 7.903600098E+03
 1.157925572E+03	 7.908600098E+03
 1.158480201E+03	 7.946399902E+03
 1.159034774E+03	 7.917200195E+03
 1.159589289E+03	 7.918600098E+03
 1.160143748E+03	 7.851000000E+03
 1.160698149E+03	 7.891799805E+03
 1.161252494E+03	 7.863799805E+03
 1.161806782E+03	 7.939799805E+03
 1.162361013E+03	 7.909600098E+03
 1.162915187E+03	 7.866000000E+03
 1.163469304E+03	 7.846000000E+03
 1.164023364E+03	 7.816000000E+03
 1.164577368E+03	 7.836000000E+03
 1.165131314E+03	 7.872000000E+03
 1.165685204E+03	 7.845000000E+03
 1.166239036E+03	 7.814600098E+03
 1.166792812E+03	 7.808799805E+03
 1.167346531E+03	 7.894200195E+03
 1.167900193E+03	 7.826799805E+03
 1.168453798E+03	 7.855200195E+03
 1.169007347E+03	 7.841000000E+03
 1.169560838E+03	 7.811000000E+03
 1.170114273E+03	 7.813000000E+03
 1.170667650E+03	 7.819000000E+03
 1.171220971E+03	 7.809600098E+03
 1.171774235E+03	 7.810799805E+03
 1.172327443E+03	 7.831399902E+03
 1.172880593E+03	 7.842600098E+03
 1.173433687E+03	 7.821600098E+03
 1.173986723E+03	 7.827600098E+03
 1.174539703E+03	 7.751799805E+03
 1.175092626E+03	 7.827799805E+03
 1.175645493E+03	 7.807600098E+03
 1.176198302E+03	 7.756399902E+03
 1.176751055E+03	 7.774600098E+03
 1.177303751E+03	 7.759399902E+03
 1.177856390E+03	 7.769399902E+03
 1.178408972E+03	 7.761600098E+03
 1.178961498E+03	 7.751799805E+03
 1.179513966E+03	 7.704399902E+03
 1.180066378E+03	 7.728200195E+03
 1.180618733E+03	 7.727399902E+03
 1.181171032E+03	 7.746600098E+03
 1.181723273E+03	 7.694799805E+03
 1.182275458E+03	 7.710600098E+03
 1.182827586E+03	 7.727399902E+03
 1.183379657E+03	 7.728799805E+03
 1.183931672E+03	 7.669399902E+03
 1.184483630E+03	 7.720600098E+03
 1.185035531E+03	 7.689200195E+03
 1.185587375E+03	 7.730000000E+03
 1.186139162E+03	 7.670799805E+03
 1.186690893E+03	 7.649000000E+03
 1.187242567E+03	 7.669000000E+03
 1.187794184E+03	 7.673000000E+03
 1.188345745E+03	 7.636200195E+03
 1.188897249E+03	 7.663200195E+03
 1.189448696E+03	 7.625000000E+03
 1.190000086E+03	 7.694799805E+03
 1.190551420E+03	 7.640200195E+03
 1.191102697E+03	 7.674399902E+03
 1.191653918E+03	 7.631200195E+03
 1.192205081E+03	 7.630000000E+03
 1.192756188E+03	 7.658600098E+03
 1.193307238E+03	 7.681200195E+03
 1.193858232E+03	 7.619600098E+03
 1.194409169E+03	 7.629000000E+03
 1.194960049E+03	 7.579600098E+03
 1.195510872E+03	 7.600399902E+03
 1.196061639E+03	 7.586799805E+03
 1.196612349E+03	 7.557600098E+03
 1.197163003E+03	 7.611200195E+03
 1.197713599E+03	 7.536399902E+03
 1.198264139E+03	 7.579200195E+03
 1.198814623E+03	 7.533000000E+03
 1.199365050E+03	 7.552799805E+03
 1.199915420E+03	 7.509799805E+03
 1.200465734E+03	 7.585000000E+03
 1.201015990E+03	 7.507399902E+03
 1.201566191E+03	 7.572399902E+03
 1.202116334E+03	 7.527399902E+03
 1.202666421E+03	 7.527200195E+03
 1.203216452E+03	 7.511000000E+03
 1.203766425E+03	 7.486399902E+03
 1.204316343E+03	 7.513000000E+03
 1.204866203E+03	 7.522200195E+03
 1.205416007E+03	 7.466600098E+03
 1.205965754E+03	 7.508799805E+03
 1.206515445E+03	 7.435399902E+03
 1.207065079E+03	 7.422200195E+03
 1.207614657E+03	 7.481600098E+03
 1.208164177E+03	 7.459200195E+03
 1.208713642E+03	 7.455600098E+03
 1.209263050E+03	 7.437200195E+03
 1.209812401E+03	 7.433200195E+03
 1.210361695E+03	 7.426399902E+03
 1.210910933E+03	 7.473600098E+03
 1.211460115E+03	 7.422000000E+03
 1.212009240E+03	 7.391200195E+03
 1.212558308E+03	 7.424600098E+03
 1.213107320E+03	 7.439799805E+03
 1.213656275E+03	 7.397799805E+03
 1.214205174E+03	 7.458799805E+03
 1.214754016E+03	 7.380200195E+03
 1.215302801E+03	 7.395799805E+03
 1.215851530E+03	 7.409399902E+03
 1.216400203E+03	 7.378200195E+03
 1.216948819E+03	 7.383399902E+03
 1.217497378E+03	 7.420600098E+03
 1.218045881E+03	 7.369000000E+03
 1.218594327E+03	 7.399600098E+03
 1.219142717E+03	 7.309000000E+03
 1.219691051E+03	 7.347000000E+03
 1.220239327E+03	 7.360399902E+03
 1.220787548E+03	 7.344600098E+03
 1.221335712E+03	 7.393000000E+03
 1.221883819E+03	 7.315399902E+03
 1.222431870E+03	 7.336200195E+03
 1.222979864E+03	 7.308000000E+03
 1.223527802E+03	 7.278200195E+03
 1.224075683E+03	 7.318600098E+03
 1.224623508E+03	 7.261000000E+03
 1.225171277E+03	 7.314399902E+03
 1.225718989E+03	 7.295000000E+03
 1.226266644E+03	 7.328200195E+03
 1.226814243E+03	 7.301600098E+03
 1.227361786E+03	 7.285600098E+03
 1.227909272E+03	 7.241799805E+03
 1.228456702E+03	 7.242399902E+03
 1.229004075E+03	 7.287000000E+03
 1.229551392E+03	 7.219600098E+03
 1.230098652E+03	 7.288399902E+03
 1.230645856E+03	 7.265600098E+03
 1.231193003E+03	 7.304600098E+03
 1.231740094E+03	 7.245600098E+03
 1.232287129E+03	 7.281200195E+03
 1.232834107E+03	 7.230600098E+03
 1.233381029E+03	 7.245799805E+03
 1.233927894E+03	 7.218000000E+03
 1.234474703E+03	 7.267600098E+03
 1.235021455E+03	 7.206799805E+03
 1.235568151E+03	 7.230600098E+03
 1.236114791E+03	 7.224799805E+03
 1.236661374E+03	 7.259600098E+03
 1.237207901E+03	 7.178799805E+03
 1.237754372E+03	 7.219799805E+03
 1.238300786E+03	 7.190000000E+03
 1.238847144E+03	 7.215799805E+03
 1.239393445E+03	 7.161600098E+03
 1.239939690E+03	 7.171200195E+03
 1.240485879E+03	 7.177600098E+03
 1.241032011E+03	 7.194600098E+03
 1.241578087E+03	 7.134399902E+03
 1.242124106E+03	 7.134799805E+03
 1.242670070E+03	 7.172600098E+03
 1.243215976E+03	 7.157600098E+03
 1.243761827E+03	 7.178600098E+03
 1.244307621E+03	 7.107000000E+03
 1.244853359E+03	 7.173799805E+03
 1.245399040E+03	 7.141799805E+03
 1.245944665E+03	 7.169600098E+03
 1.246490234E+03	 7.174399902E+03
 1.247035746E+03	 7.175000000E+03
 1.247581203E+03	 7.104600098E+03
 1.248126602E+03	 7.117000000E+03
 1.248671946E+03	 7.117799805E+03
 1.249217233E+03	 7.139600098E+03
 1.249762464E+03	 7.128000000E+03
 1.250307638E+03	 7.135000000E+03
 1.250852757E+03	 7.091600098E+03
 1.251397819E+03	 7.107000000E+03
 1.251942824E+03	 7.057200195E+03
 1.252487774E+03	 7.076399902E+03
 1.253032667E+03	 7.055399902E+03
 1.253577503E+03	 7.077799805E+03
 1.254122284E+03	 7.090600098E+03
 1.254667008E+03	 7.045600098E+03
 1.255211676E+03	 7.032600098E+03
 1.255756288E+03	 7.076399902E+03
 1.256300843E+03	 7.070000000E+03
 1.256845342E+03	 7.059600098E+03
 1.257389785E+03	 7.081799805E+03
 1.257934172E+03	 7.034399902E+03
 1.258478502E+03	 7.064600098E+03
 1.259022776E+03	 7.041000000E+03
 1.259566994E+03	 7.040000000E+03
 1.260111156E+03	 6.996600098E+03
 1.260655261E+03	 7.017799805E+03
 1.261199311E+03	 6.999000000E+03
 1.261743304E+03	 6.999000000E+03
 1.262287240E+03	 7.036600098E+03
 1.262831121E+03	 7.001799805E+03
 1.263374945E+03	 7.020200195E+03
 1.263918713E+03	 7.005000000E+03
 1.264462425E+03	 7.005200195E+03
 1.265006081E+03	 7.034000000E+03
 1.265549680E+03	 6.996399902E+03
 1.266093223E+03	 6.988600098E+03
 1.266636711E+03	 6.999799805E+03
 1.267180141E+03	 6.940000000E+03
 1.267723516E+03	 7.019799805E+03
 1.268266835E+03	 6.944600098E+03
 1.268810097E+03	 6.978399902E+03
 1.269353303E+03	 6.917200195E+03
 1.269896453E+03	 6.903000000E+03
 1.270439547E+03	 6.942799805E+03
 1.270982584E+03	 6.919600098E+03
 1.271525566E+03	 6.954000000E+03
 1.272068491E+03	 6.968799805E+03
 1.272611360E+03	 6.955200195E+03
 1.273154173E+03	 6.944399902E+03
 1.273696930E+03	 6.949799805E+03
 1.274239631E+03	 6.949000000E+03
 1.274782275E+03	 6.908000000E+03
 1.275324864E+03	 6.896399902E+03
 1.275867396E+03	 6.927399902E+03
 1.276409872E+03	 6.923799805E+03
 1.276952292E+03	 6.862799805E+03
 1.277494656E+03	 6.878399902E+03
 1.278036964E+03	 6.858600098E+03
 1.278579215E+03	 6.859200195E+03
 1.279121411E+03	 6.856399902E+03
 1.279663550E+03	 6.907000000E+03
 1.280205634E+03	 6.866200195E+03
 1.280747661E+03	 6.843600098E+03
 1.281289632E+03	 6.876000000E+03
 1.281831547E+03	 6.884000000E+03
 1.282373406E+03	 6.899000000E+03
 1.282915209E+03	 6.845399902E+03
 1.283456955E+03	 6.878799805E+03
 1.283998646E+03	 6.872799805E+03
 1.284540281E+03	 6.881000000E+03
 1.285081859E+03	 7.010399902E+03
 1.285623381E+03	 7.279200195E+03
 1.286164848E+03	 7.103000000E+03
 1.286706258E+03	 6.915200195E+03
 1.287247612E+03	 6.847799805E+03
 1.287788911E+03	 6.846200195E+03
 1.288330153E+03	 6.803799805E+03
 1.288871339E+03	 6.799200195E+03
 1.289412469E+03	 6.761600098E+03
 1.289953543E+03	 6.797000000E+03
 1.290494561E+03	 6.782000000E+03
 1.291035523E+03	 6.772399902E+03
 1.291576428E+03	 6.753799805E+03
 1.292117278E+03	 6.801000000E+03
 1.292658072E+03	 6.772799805E+03
 1.293198810E+03	 6.793000000E+03
 1.293739492E+03	 6.729000000E+03
 1.294280118E+03	 6.781000000E+03
 1.294820687E+03	 6.733399902E+03
 1.295361201E+03	 6.757000000E+03
 1.295901659E+03	 6.707200195E+03
 1.296442061E+03	 6.783200195E+03
 1.296982406E+03	 6.688799805E+03
 1.297522696E+03	 6.730200195E+03
 1.298062930E+03	 6.719399902E+03
 1.298603108E+03	 6.675799805E+03
 1.299143229E+03	 6.722000000E+03
 1.299683295E+03	 6.750000000E+03
 1.300223305E+03	 6.687799805E+03
 1.300763259E+03	 6.707000000E+03
 1.301303157E+03	 6.663200195E+03
 1.301842999E+03	 6.711000000E+03
 1.302382785E+03	 6.722799805E+03
 1.302922515E+03	 6.734200195E+03
 1.303462189E+03	 6.721200195E+03
 1.304001807E+03	 6.627799805E+03
 1.304541369E+03	 6.714600098E+03
 1.305080875E+03	 6.664200195E+03
 1.305620326E+03	 6.680600098E+03
 1.306159720E+03	 6.663399902E+03
 1.306699058E+03	 6.643399902E+03
 1.307238341E+03	 6.631200195E+03
 1.307777567E+03	 6.672000000E+03
 1.308316738E+03	 6.658600098E+03
 1.308855853E+03	 6.607399902E+03
 1.309394912E+03	 6.594200195E+03
 1.309933915E+03	 6.649000000E+03
 1.310472862E+03	 6.565799805E+03
 1.311011753E+03	 6.635399902E+03
 1.311550588E+03	 6.622200195E+03
 1.312089367E+03	 6.625600098E+03
 1.312628090E+03	 6.586600098E+03
 1.313166758E+03	 6.587399902E+03
 1.313705370E+03	 6.589799805E+03
 1.314243925E+03	 6.599000000E+03
 1.314782425E+03	 6.578399902E+03
 1.315320869E+03	 6.583600098E+03
 1.315859257E+03	 6.585200195E+03
 1.316397589E+03	 6.593600098E+03
 1.316935866E+03	 6.586200195E+03
 1.317474086E+03	 6.538799805E+03
 1.318012251E+03	 6.604799805E+03
 1.318550360E+03	 6.566799805E+03
 1.319088413E+03	 6.561000000E+03
 1.319626410E+03	 6.505399902E+03
 1.320164351E+03	 6.557399902E+03
 1.320702236E+03	 6.519000000E+03
 1.321240066E+03	 6.564600098E+03
 1.321777839E+03	 6.528799805E+03
 1.322315557E+03	 6.552600098E+03
 1.322853219E+03	 6.471399902E+03
 1.323390826E+03	 6.534600098E+03
 1.323928376E+03	 6.508000000E+03
 1.324465871E+03	 6.523000000E+03
 1.325003309E+03	 6.524399902E+03
 1.325540692E+03	 6.522000000E+03
 1.326078020E+03	 6.527799805E+03
 1.326615291E+03	 6.528600098E+03
 1.327152506E+03	 6.467799805E+03
 1.327689666E+03	 6.455399902E+03
 1.328226770E+03	 6.485200195E+03
 1.328763818E+03	 6.474200195E+03
 1.329300811E+03	 6.521200195E+03
 1.329837747E+03	 6.482000000E+03
 1.330374628E+03	 6.488200195E+03
 1.330911453E+03	 6.464799805E+03
 1.331448222E+03	 6.527000000E+03
 1.331984936E+03	 6.477399902E+03
 1.332521594E+03	 6.469200195E+03
 1.333058196E+03	 6.431799805E+03
 1.333594742E+03	 6.437799805E+03
 1.334131232E+03	 6.399000000E+03
 1.334667667E+03	 6.472399902E+03
 1.335204046E+03	 6.427399902E+03
 1.335740369E+03	 6.399799805E+03
 1.336276637E+03	 6.409600098E+03
 1.336812848E+03	 6.425799805E+03
 1.337349004E+03	 6.441000000E+03
 1.337885105E+03	 6.435399902E+03
 1.338421149E+03	 6.461600098E+03
 1.338957138E+03	 6.408600098E+03
 1.339493071E+03	 6.405600098E+03
 1.340028949E+03	 6.385200195E+03
 1.340564770E+03	 6.434000000E+03
 1.341100536E+03	 6.384200195E+03
 1.341636246E+03	 6.390799805E+03
 1.342171901E+03	 6.348399902E+03
 1.342707500E+03	 6.381000000E+03
 1.343243043E+03	 6.348200195E+03
 1.343778530E+03	 6.404000000E+03
 1.344313962E+03	 6.353399902E+03
 1.344849338E+03	 6.350200195E+03
 1.345384659E+03	 6.330600098E+03
 1.345919923E+03	 6.370000000E+03
 1.346455133E+03	 6.357399902E+03
 1.346990286E+03	 6.372000000E+03
 1.347525384E+03	 6.331200195E+03
 1.348060426E+03	 6.345200195E+03
 1.348595412E+03	 6.361200195E+03
 1.349130343E+03	 6.294200195E+03
 1.349665218E+03	 6.389399902E+03
 1.350200037E+03	 6.355799805E+03
 1.350734801E+03	 6.341600098E+03
 1.351269509E+03	 6.305200195E+03
 1.351804162E+03	 6.343600098E+03
 1.352338758E+03	 6.269000000E+03
 1.352873300E+03	 6.314399902E+03
 1.353407785E+03	 6.296000000E+03
 1.353942215E+03	 6.329799805E+03
 1.354476589E+03	 6.286000000E+03
 1.355010908E+03	 6.310399902E+03
 1.355545171E+03	 6.232799805E+03
 1.356079379E+03	 6.329200195E+03
 1.356613530E+03	 6.261000000E+03
 1.357147627E+03	 6.296000000E+03
 1.357681667E+03	 6.276200195E+03
 1.358215652E+03	 6.259200195E+03
 1.358749582E+03	 6.253600098E+03
 1.359283456E+03	 6.279799805E+03
 1.359817274E+03	 6.268799805E+03
 1.360351037E+03	 6.253200195E+03
 1.360884744E+03	 6.245000000E+03
 1.361418395E+03	 6.223000000E+03
 1.361951991E+03	 6.280399902E+03
 1.362485531E+03	 6.163600098E+03
 1.363019016E+03	 6.270600098E+03
 1.363552445E+03	 6.221200195E+03
 1.364085819E+03	 6.234600098E+03
 1.364619137E+03	 6.200799805E+03
 1.365152400E+03	 6.260399902E+03
 1.365685607E+03	 6.158399902E+03
 1.366218758E+03	 6.233600098E+03
 1.366751854E+03	 6.166200195E+03
 1.367284894E+03	 6.230799805E+03
 1.367817879E+03	 6.207799805E+03
 1.368350808E+03	 6.147799805E+03
 1.368883682E+03	 6.196200195E+03
 1.369416500E+03	 6.188000000E+03
 1.369949263E+03	 6.174200195E+03
 1.370481970E+03	 6.202200195E+03
 1.371014622E+03	 6.228200195E+03
 1.371547218E+03	 6.183000000E+03
 1.372079758E+03	 6.184200195E+03
 1.372612244E+03	 6.137200195E+03
 1.373144673E+03	 6.164200195E+03
 1.373677047E+03	 6.154600098E+03
 1.374209366E+03	 6.203200195E+03
 1.374741629E+03	 6.144600098E+03
 1.375273836E+03	 6.149000000E+03
 1.375805989E+03	 6.133399902E+03
 1.376338085E+03	 6.141799805E+03
 1.376870126E+03	 6.150399902E+03
 1.377402112E+03	 6.172600098E+03
 1.377934042E+03	 6.127799805E+03
 1.378465917E+03	 6.125000000E+03
 1.378997736E+03	 6.146799805E+03
 1.379529500E+03	 6.094200195E+03
 1.380061208E+03	 6.134399902E+03
 1.380592861E+03	 6.088000000E+03
 1.381124459E+03	 6.119200195E+03
 1.381656000E+03	 6.089799805E+03
 1.382187487E+03	 6.135200195E+03
 1.382718918E+03	 6.104600098E+03
 1.383250294E+03	 6.157799805E+03
 1.383781614E+03	 6.050600098E+03
 1.384312879E+03	 6.104000000E+03
 1.384844088E+03	 6.086000000E+03
 1.385375242E+03	 6.109600098E+03
 1.385906340E+03	 6.128600098E+03
 1.386437383E+03	 6.083399902E+03
 1.386968371E+03	 6.101799805E+03
 1.387499303E+03	 6.113799805E+03
 1.388030180E+03	 6.181600098E+03
 1.388561001E+03	 6.640000000E+03
 1.389091767E+03	 6.869200195E+03
 1.389622478E+03	 6.230799805E+03
 1.390153133E+03	 6.140600098E+03
 1.390683733E+03	 6.010600098E+03
 1.391214277E+03	 6.065399902E+03
 1.391744766E+03	 6.013799805E+03
 1.392275200E+03	 6.083000000E+03
 1.392805578E+03	 6.017600098E+03
 1.393335901E+03	 6.025000000E+03
 1.393866168E+03	 6.025600098E+03
 1.394396381E+03	 6.044799805E+03
 1.394926537E+03	 6.036000000E+03
 1.395456639E+03	 6.020200195E+03
 1.395986685E+03	 6.028799805E+03
 1.396516675E+03	 6.024399902E+03
 1.397046611E+03	 6.019799805E+03
 1.397576491E+03	 6.019000000E+03
 1.398106315E+03	 6.041600098E+03
 1.398636084E+03	 5.983399902E+03
 1.399165798E+03	 6.082000000E+03
 1.399695457E+03	 6.006799805E+03
 1.400225060E+03	 6.023600098E+03
 1.400754608E+03	 5.965000000E+03
 1.401284101E+03	 5.998799805E+03
 1.401813538E+03	 5.953399902E+03
 1.402342920E+03	 5.987200195E+03
 1.402872247E+03	 5.980399902E+03
 1.403401518E+03	 6.025399902E+03
 1.403930734E+03	 6.031600098E+03
 1.404459895E+03	 5.969799805E+03
 1.404989000E+03	 6.021000000E+03
 1.405518050E+03	 5.974600098E+03
 1.406047045E+03	 5.968000000E+03
 1.406575984E+03	 5.954200195E+03
 1.407104869E+03	 6.046000000E+03
 1.407633697E+03	 5.953399902E+03
 1.408162471E+03	 5.995799805E+03
 1.408691189E+03	 5.965000000E+03
 1.409219852E+03	 5.990600098E+03
 1.409748460E+03	 6.007799805E+03
 1.410277013E+03	 6.049200195E+03
 1.410805510E+03	 5.992399902E+03
 1.411333952E+03	 5.935600098E+03
 1.411862339E+03	 5.962000000E+03
 1.412390670E+03	 5.925799805E+03
 1.412918946E+03	 5.993399902E+03
 1.413447167E+03	 5.943399902E+03
 1.413975333E+03	 5.913600098E+03
 1.414503444E+03	 5.908600098E+03
 1.415031499E+03	 5.974799805E+03
 1.415559499E+03	 5.876799805E+03
 1.416087444E+03	 5.924799805E+03
 1.416615333E+03	 5.904799805E+03
 1.417143167E+03	 5.900000000E+03
 1.417670947E+03	 5.942799805E+03
 1.418198670E+03	 5.916399902E+03
 1.418726339E+03	 5.879799805E+03
 1.419253952E+03	 5.914600098E+03
 1.419781511E+03	 5.927399902E+03
 1.420309014E+03	 5.879799805E+03
 1.420836461E+03	 5.891399902E+03
 1.421363854E+03	 5.887600098E+03
 1.421891191E+03	 5.897000000E+03
 1.422418474E+03	 5.892000000E+03
 1.422945701E+03	 5.913600098E+03
 1.423472872E+03	 5.865600098E+03
 1.423999989E+03	 5.887399902E+03
 1.424527050E+03	 5.872200195E+03
 1.425054057E+03	 5.894200195E+03
 1.425581008E+03	 5.868000000E+03
 1.426107904E+03	 5.915600098E+03
 1.426634745E+03	 5.900399902E+03
 1.427161530E+03	 5.898399902E+03
 1.427688261E+03	 5.905000000E+03
 1.428214936E+03	 5.868799805E+03
 1.428741556E+03	 5.873600098E+03
 1.429268121E+03	 5.838000000E+03
 1.429794631E+03	 5.869600098E+03
 1.430321085E+03	 5.863399902E+03
 1.430847485E+03	 5.886200195E+03
 1.431373829E+03	 5.857200195E+03
 1.431900118E+03	 5.826799805E+03
 1.432426353E+03	 5.855000000E+03
 1.432952532E+03	 5.841799805E+03
 1.433478655E+03	 5.797600098E+03
 1.434004724E+03	 5.796799805E+03
 1.434530738E+03	 5.834799805E+03
 1.435056696E+03	 5.815399902E+03
 1.435582600E+03	 5.786799805E+03
 1.436108448E+03	 5.825200195E+03
 1.436634241E+03	 5.832200195E+03
 1.437159979E+03	 5.804000000E+03
 1.437685662E+03	 5.811600098E+03
 1.438211290E+03	 5.782200195E+03
 1.438736863E+03	 5.836000000E+03
 1.439262381E+03	 5.783799805E+03
 1.439787843E+03	 5.794799805E+03
 1.440313251E+03	 5.786600098E+03
 1.440838603E+03	 5.803799805E+03
 1.441363900E+03	 5.733600098E+03
 1.441889143E+03	 5.764600098E+03
 1.442414330E+03	 5.790399902E+03
 1.442939462E+03	 5.744200195E+03
 1.443464539E+03	 5.751799805E+03
 1.443989561E+03	 5.765799805E+03
 1.444514528E+03	 5.756200195E+03
 1.445039440E+03	 5.732000000E+03
 1.445564297E+03	 5.752200195E+03
 1.446089099E+03	 5.749000000E+03
 1.446613846E+03	 5.731200195E+03
 1.447138537E+03	 5.748399902E+03
 1.447663174E+03	 5.764200195E+03
 1.448187756E+03	 5.729600098E+03
 1.448712282E+03	 5.702600098E+03
 1.449236754E+03	 5.750399902E+03
 1.449761171E+03	 5.731000000E+03
 1.450285532E+03	 5.722399902E+03
 1.450809839E+03	 5.725799805E+03
 1.451334090E+03	 5.732200195E+03
 1.451858287E+03	 5.711799805E+03
 1.452382428E+03	 5.701600098E+03
 1.452906515E+03	 5.701600098E+03
 1.453430546E+03	 5.677600098E+03
 1.453954523E+03	 5.709399902E+03
 1.454478444E+03	 5.679200195E+03
 1.455002311E+03	 5.715200195E+03
 1.455526123E+03	 5.716399902E+03
 1.456049879E+03	 5.706000000E+03
 1.456573581E+03	 5.705799805E+03
 1.457097227E+03	 5.692399902E+03
 1.457620819E+03	 5.717600098E+03
 1.458144356E+03	 5.652399902E+03
 1.458667837E+03	 5.684399902E+03
 1.459191264E+03	 5.705799805E+03
 1.459714636E+03	 5.652399902E+03
 1.460237952E+03	 5.651799805E+03
 1.460761214E+03	 5.648799805E+03
 1.461284421E+03	 5.647600098E+03
 1.461807573E+03	 5.715399902E+03
 1.462330670E+03	 5.619399902E+03
 1.462853712E+03	 5.647200195E+03
 1.463376699E+03	 5.645600098E+03
 1.463899632E+03	 5.656600098E+03
 1.464422509E+03	 5.640000000E+03
 1.464945331E+03	 5.626799805E+03
 1.465468099E+03	 5.649600098E+03
 1.465990811E+03	 5.606799805E+03
 1.466513469E+03	 5.635000000E+03
 1.467036071E+03	 5.614600098E+03
 1.467558619E+03	 5.660600098E+03
 1.468081112E+03	 5.630000000E+03
 1.468603550E+03	 5.653799805E+03
 1.469125933E+03	 5.599399902E+03
 1.469648261E+03	 5.592399902E+03
 1.470170534E+03	 5.605799805E+03
 1.470692752E+03	 5.582799805E+03
 1.471214916E+03	 5.637799805E+03
 1.471737024E+03	 5.562799805E+03
 1.472259078E+03	 5.558000000E+03
 1.472781077E+03	 5.568600098E+03
 1.473303021E+03	 5.605000000E+03
 1.473824910E+03	 5.561799805E+03
 1.474346744E+03	 5.622200195E+03
 1.474868523E+03	 5.588200195E+03
 1.475390248E+03	 5.574399902E+03
 1.475911917E+03	 5.568799805E+03
 1.476433532E+03	 5.567399902E+03
 1.476955092E+03	 5.565000000E+03
 1.477476597E+03	 5.592799805E+03
 1.477998047E+03	 5.604600098E+03
 1.478519442E+03	 5.554600098E+03
 1.479040783E+03	 5.557399902E+03
 1.479562068E+03	 5.541399902E+03
 1.480083299E+03	 5.538600098E+03
 1.480604475E+03	 5.538200195E+03
 1.481125596E+03	 5.556399902E+03
 1.481646663E+03	 5.521600098E+03
 1.482167674E+03	 5.523399902E+03
 1.482688631E+03	 5.482600098E+03
 1.483209533E+03	 5.504600098E+03
 1.483730380E+03	 5.507600098E+03
 1.484251172E+03	 5.531399902E+03
 1.484771909E+03	 5.500000000E+03
 1.485292592E+03	 5.485200195E+03
 1.485813220E+03	 5.522600098E+03
 1.486333793E+03	 5.495399902E+03
 1.486854311E+03	 5.553000000E+03
 1.487374775E+03	 5.460600098E+03
 1.487895183E+03	 5.521799805E+03
 1.488415537E+03	 5.460600098E+03
 1.488935836E+03	 5.476399902E+03
 1.489456081E+03	 5.445399902E+03
 1.489976270E+03	 5.467000000E+03
 1.490496405E+03	 5.438000000E+03
 1.491016485E+03	 5.452600098E+03
 1.491536511E+03	 5.487399902E+03
 1.492056481E+03	 5.458799805E+03
 1.492576397E+03	 5.454200195E+03
 1.493096258E+03	 5.466000000E+03
 1.493616064E+03	 5.452399902E+03
 1.494135816E+03	 5.443600098E+03
 1.494655513E+03	 5.466000000E+03
 1.495175155E+03	 5.442799805E+03
 1.495694742E+03	 5.440000000E+03
 1.496214274E+03	 5.430600098E+03
 1.496733752E+03	 5.394000000E+03
 1.497253175E+03	 5.445600098E+03
 1.497772544E+03	 5.454399902E+03
 1.498291858E+03	 5.422799805E+03
 1.498811116E+03	 5.454000000E+03
 1.499330321E+03	 5.441600098E+03
 1.499849470E+03	 5.455200195E+03
 1.500368565E+03	 5.429000000E+03
 1.500887605E+03	 5.396000000E+03
 1.501406591E+03	 5.403799805E+03
 1.501925521E+03	 5.400200195E+03
 1.502444397E+03	 5.396200195E+03
 1.502963219E+03	 5.427000000E+03
 1.503481985E+03	 5.405200195E+03
 1.504000697E+03	 5.382600098E+03
 1.504519355E+03	 5.404799805E+03
 1.505037957E+03	 5.405600098E+03
 1.505556505E+03	 5.407200195E+03
 1.506074999E+03	 5.403200195E+03
 1.506593437E+03	 5.383399902E+03
 1.507111821E+03	 5.396399902E+03
 1.507630150E+03	 5.370000000E+03
 1.508148425E+03	 5.369399902E+03
 1.508666645E+03	 5.345000000E+03
 1.509184810E+03	 5.368000000E+03
 1.509702921E+03	 5.352200195E+03
 1.510220977E+03	 5.322799805E+03
 1.510738979E+03	 5.369600098E+03
 1.511256925E+03	 5.341000000E+03
 1.511774817E+03	 5.388399902E+03
 1.512292655E+03	 5.367799805E+03
 1.512810438E+03	 5.313000000E+03
 1.513328166E+03	 5.309799805E+03
 1.513845840E+03	 5.344600098E+03
 1.514363459E+03	 5.333600098E+03
 1.514881023E+03	 5.323200195E+03
 1.515398533E+03	 5.346600098E+03
 1.515915988E+03	 5.350200195E+03
 1.516433389E+03	 5.352000000E+03
 1.516950734E+03	 5.313399902E+03
 1.517468026E+03	 5.383799805E+03
 1.517985263E+03	 5.355000000E+03
 1.518502445E+03	 5.306799805E+03
 1.519019572E+03	 5.345399902E+03
 1.519536645E+03	 5.333600098E+03
 1.520053664E+03	 5.319399902E+03
 1.520570628E+03	 5.298799805E+03
 1.521087537E+03	 5.310399902E+03
 1.521604392E+03	 5.379799805E+03
 1.522121192E+03	 5.325799805E+03
 1.522637937E+03	 5.340399902E+03
 1.523154628E+03	 5.294600098E+03
 1.523671265E+03	 5.306799805E+03
 1.524187847E+03	 5.332399902E+03
 1.524704374E+03	 5.328799805E+03
 1.525220847E+03	 5.326399902E+03
 1.525737265E+03	 5.267799805E+03
 1.526253629E+03	 5.312399902E+03
 1.526769938E+03	 5.303399902E+03
 1.527286192E+03	 5.320200195E+03
 1.527802392E+03	 5.304600098E+03
 1.528318538E+03	 5.292000000E+03
 1.528834629E+03	 5.270600098E+03
 1.529350666E+03	 5.289000000E+03
 1.529866648E+03	 5.295600098E+03
 1.530382575E+03	 5.284200195E+03
 1.530898448E+03	 5.290600098E+03
 1.531414266E+03	 5.287200195E+03
 1.531930030E+03	 5.317799805E+03
 1.532445740E+03	 5.335600098E+03
 1.532961395E+03	 5.297000000E+03
 1.533476995E+03	 5.318200195E+03
 1.533992541E+03	 5.305000000E+03
 1.534508033E+03	 5.237399902E+03
 1.535023470E+03	 5.308399902E+03
 1.535538852E+03	 5.254000000E+03
 1.536054180E+03	 5.281200195E+03
 1.536569454E+03	 5.232600098E+03
 1.537084673E+03	 5.276600098E+03
 1.537599837E+03	 5.305600098E+03
 1.538114947E+03	 5.277600098E+03
 1.538630003E+03	 5.262399902E+03
 1.539145004E+03	 5.237799805E+03
 1.539659951E+03	 5.264000000E+03
 1.540174843E+03	 5.244799805E+03
 1.540689681E+03	 5.255600098E+03
 1.541204465E+03	 5.257000000E+03
 1.541719194E+03	 5.252799805E+03
 1.542233868E+03	 5.258200195E+03
 1.542748488E+03	 5.267000000E+03
 1.543263054E+03	 5.250399902E+03
 1.543777565E+03	 5.254799805E+03
 1.544292022E+03	 5.242399902E+03
 1.544806424E+03	 5.246799805E+03
 1.545320772E+03	 5.265600098E+03
 1.545835066E+03	 5.214000000E+03
 1.546349305E+03	 5.262200195E+03
 1.546863489E+03	 5.264200195E+03
 1.547377620E+03	 5.266799805E+03
 1.547891696E+03	 5.246000000E+03
 1.548405717E+03	 5.249399902E+03
 1.548919684E+03	 5.228399902E+03
 1.549433597E+03	 5.252600098E+03
 1.549947455E+03	 5.243000000E+03
 1.550461259E+03	 5.221200195E+03
 1.550975009E+03	 5.224399902E+03
 1.551488704E+03	 5.250000000E+03
 1.552002345E+03	 5.247799805E+03
 1.552515931E+03	 5.226000000E+03
 1.553029463E+03	 5.252600098E+03
 1.553542941E+03	 5.222799805E+03
 1.554056364E+03	 5.226399902E+03
 1.554569733E+03	 5.214399902E+03
 1.555083048E+03	 5.198600098E+03
 1.555596308E+03	 5.192200195E+03
 1.556109514E+03	 5.219000000E+03
 1.556622665E+03	 5.213000000E+03
 1.557135762E+03	 5.230000000E+03
 1.557648805E+03	 5.228799805E+03
 1.558161794E+03	 5.212399902E+03
 1.558674728E+03	 5.220600098E+03
 1.559187608E+03	 5.172000000E+03
 1.559700433E+03	 5.171399902E+03
 1.560213205E+03	 5.158000000E+03
 1.560725921E+03	 5.167200195E+03
 1.561238584E+03	 5.185200195E+03
 1.561751192E+03	 5.224399902E+03
 1.562263746E+03	 5.230399902E+03
 1.562776246E+03	 5.176799805E+03
 1.563288691E+03	 5.212200195E+03
 1.563801082E+03	 5.201200195E+03
 1.564313419E+03	 5.206799805E+03
 1.564825701E+03	 5.175399902E+03
 1.565337929E+03	 5.195200195E+03
 1.565850103E+03	 5.196600098E+03
 1.566362223E+03	 5.154000000E+03
 1.566874288E+03	 5.180200195E+03
 1.567386299E+03	 5.185799805E+03
 1.567898256E+03	 5.160399902E+03
 1.568410158E+03	 5.157399902E+03
 1.568922007E+03	 5.177000000E+03
 1.569433800E+03	 5.126000000E+03
 1.569945540E+03	 5.136399902E+03
 1.570457226E+03	 5.187799805E+03
 1.570968857E+03	 5.174799805E+03
 1.571480434E+03	 5.167600098E+03
 1.571991956E+03	 5.161000000E+03
 1.572503425E+03	 5.134200195E+03
 1.573014839E+03	 5.123399902E+03
 1.573526199E+03	 5.168200195E+03
 1.574037505E+03	 5.167600098E+03
 1.574548756E+03	 5.131799805E+03
 1.575059953E+03	 5.133000000E+03
 1.575571096E+03	 5.187399902E+03
 1.576082185E+03	 5.177200195E+03
 1.576593220E+03	 5.139399902E+03
 1.577104200E+03	 5.160000000E+03
 1.577615126E+03	 5.140799805E+03
 1.578125998E+03	 5.150799805E+03
 1.578636816E+03	 5.108399902E+03
 1.579147580E+03	 5.100600098E+03
 1.579658289E+03	 5.108399902E+03
 1.580168944E+03	 5.140799805E+03
 1.580679545E+03	 5.112000000E+03
 1.581190092E+03	 5.147799805E+03
 1.581700585E+03	 5.074399902E+03
 1.582211023E+03	 5.125600098E+03
 1.582721407E+03	 5.132200195E+03
 1.583231737E+03	 5.071600098E+03
 1.583742013E+03	 5.102000000E+03
 1.584252235E+03	 5.043200195E+03
 1.584762403E+03	 5.101399902E+03
 1.585272516E+03	 5.111200195E+03
 1.585782575E+03	 5.086000000E+03
 1.586292581E+03	 5.081399902E+03
 1.586802532E+03	 5.060799805E+03
 1.587312428E+03	 5.094600098E+03
 1.587822271E+03	 5.100000000E+03
 1.588332060E+03	 5.107000000E+03
 1.588841794E+03	 5.050600098E+03
 1.589351474E+03	 5.093200195E+03
 1.589861100E+03	 5.063200195E+03
 1.590370672E+03	 5.099799805E+03
 1.590880190E+03	 5.055000000E+03
 1.591389654E+03	 5.095000000E+03
 1.591899064E+03	 5.087600098E+03
 1.592408419E+03	 5.092600098E+03
