1043.018714	2153.800049
1043.585098	2166.199951
1044.151424	2159.800049
1044.717692	2162.0
1045.283903	2171.600098
1045.850056	2149.600098
1046.416151	2140.800049
1046.982188	2126.800049
1047.548167	2152.800049
1048.114089	2134.399902
1048.679953	2144.199951
1049.24576	2126.800049
1049.811509	2151.600098
1050.3772	2133.600098
1050.942833	2151.399902
1051.508408	2137.800049
1052.073926	2118.399902
1052.639387	2143.800049
1053.204789	2129.399902
1053.770134	2152.199951
1054.335421	2152.600098
1054.900651	2149.399902
1055.465823	2139.0
1056.030937	2153.399902
1056.595993	2130.399902
1057.160992	2167.0
1057.725934	2150.0
1058.290817	2118.600098
1058.855643	2128.399902
1059.420411	2134.600098
1059.985122	2128.399902
1060.549775	2130.199951
1061.114371	2094.600098
1061.678908	2139.800049
1062.243389	2109.800049
1062.807811	2126.600098
1063.372176	2111.800049
1063.936483	2144.0
1064.500733	2121.800049
1065.064925	2121.199951
1065.62906	2122.0
1066.193137	2130.199951
1066.757156	2101.199951
1067.321118	2131.600098
1067.885022	2124.199951
1068.448869	2122.199951
1069.012658	2106.800049
1069.57639	2119.800049
1070.140063	2115.0
1070.70368	2091.399902
1071.267239	2113.600098
1071.83074	2108.399902
1072.394184	2107.0
1072.95757	2105.199951
1073.520899	2098.199951
1074.08417	2128.800049
1074.647383	2105.399902
1075.21054	2120.0
1075.773638	2087.800049
1076.336679	2094.399902
1076.899663	2100.600098
1077.462589	2096.199951
1078.025457	2075.199951
1078.588268	2103.600098
1079.151022	2101.0
1079.713718	2102.600098
1080.276356	2086.199951
1080.838937	2084.0
1081.401461	2089.199951
1081.963927	2094.800049
1082.526336	2070.199951
1083.088687	2106.800049
1083.650981	2090.800049
1084.213217	2091.0
1084.775396	2091.800049
1085.337517	2076.0
1085.899581	2066.800049
1086.461587	2075.800049
1087.023536	2059.199951
1087.585428	2088.0
1088.147262	2070.399902
1088.709039	2071.0
1089.270758	2052.199951
1089.83242	2074.600098
1090.394024	2037.800049
1090.955571	2065.800049
1091.517061	2061.199951
1092.078493	2067.0
1092.639868	2036.800049
1093.201185	2064.0
1093.762445	2062.399902
1094.323648	2061.199951
1094.884793	2048.0
1095.445881	2048.600098
1096.006911	2036.199951
1096.567884	2052.199951
1097.1288	2041.400024
1097.689659	2057.399902
1098.25046	2030.599976
1098.811203	2042.400024
1099.37189	2033.800049
1099.932518	2037.800049
1100.49309	2062.0
1101.053604	2048.199951
1101.614061	2033.0
1102.174461	2048.199951
1102.734803	2018.0
1103.295088	2043.199951
1103.855316	2034.400024
1104.415486	2019.800049
1104.975599	2025.400024
1105.535655	2037.400024
1106.095653	2016.599976
1107.215478	2002.800049
1107.775305	2011.400024
1108.335074	2021.800049
1108.894786	2018.0
1109.45444	1995.800049
1110.014038	2009.0
1110.573578	2001.599976
1111.133061	2018.599976
1111.692486	1998.800049
1112.251854	2024.199951
1112.811165	2003.0
1113.370419	2022.199951
1113.929616	1997.0
1114.488755	2000.0
1115.047837	1999.400024
1115.606862	2008.599976
1116.16583	2000.0
1116.72474	2005.599976
1117.283593	1993.0
1117.842389	1998.800049
1118.401128	1993.199951
1118.959809	1989.0
1119.518433	1979.599976
1120.077	2024.800049
1120.63551	1982.400024
1121.193963	2008.0
1121.752358	1991.599976
1122.310697	2001.800049
1122.868978	1984.800049
1123.427202	2005.400024
1123.985368	1992.0
1124.543478	1982.400024
1125.10153	1990.599976
1125.659526	1982.0
1126.217464	1993.599976
1126.775345	1997.199951
1127.333168	1982.800049
1127.890935	1989.400024
1128.448644	1987.599976
1129.006297	1977.599976
1129.563892	1980.800049
1130.12143	1980.0
1130.678911	1962.599976
1131.236335	1961.599976
1131.793701	1999.0
1132.351011	1989.400024
1132.908263	1990.0
1133.465458	1964.400024
1134.022597	1994.800049
1134.579678	1971.400024
1135.136702	1968.0
1135.693669	1982.199951
1136.250578	1988.0
1136.807431	1987.800049
1137.364227	1963.400024
1137.920965	1978.599976
1138.477647	1986.599976
1139.034271	1970.599976
1139.590839	1978.599976
1140.147349	1966.599976
1140.703802	1991.400024
1141.260198	1966.800049
1141.816537	1993.199951
1142.37282	1982.400024
1142.929045	1984.199951
1143.485213	1989.400024
1144.041323	1984.199951
1144.597377	1980.400024
1145.153374	1966.800049
1145.709314	1971.400024
1146.265197	1976.0
1146.821023	1988.199951
1147.376792	1983.400024
1147.932503	1985.800049
1148.488158	1979.0
1149.043756	1966.599976
1149.599297	2009.599976
1150.154781	2010.400024
1150.710207	2074.600098
1151.265577	2043.599976
1151.82089	2007.800049
1152.376146	1997.0
1152.931345	1968.400024
1153.486487	1940.199951
1154.041572	1961.599976
1154.5966	1952.599976
1155.151571	1970.400024
1155.706485	1947.599976
1156.261342	1978.599976
1156.816142	1970.400024
1157.370885	1968.599976
1157.925572	1990.400024
1158.480201	1981.800049
1159.034774	1952.0
1159.589289	1962.800049
1160.143748	1958.599976
1160.698149	1985.599976
1161.252494	1970.800049
1161.806782	1972.400024
1162.361013	1975.800049
1162.915187	1954.400024
1163.469304	1943.599976
1164.023364	1980.599976
1164.577368	1958.0
1165.131314	1956.599976
1165.685204	1936.800049
1166.239036	1964.599976
1166.792812	1953.599976
1167.346531	1963.400024
1167.900193	1974.800049
1168.453798	1950.599976
1169.007347	1966.400024
1169.560838	1951.0
1170.114273	1953.0
1170.66765	1950.599976
1171.220971	1963.0
1171.774235	1936.800049
1172.327443	1943.599976
1172.880593	1951.0
1173.433687	1956.199951
1173.986723	1953.0
1174.539703	1960.0
1175.092626	1928.199951
1175.645493	1933.599976
1176.198302	1957.800049
1176.751055	1953.599976
1177.303751	1947.0
1177.85639	1957.0
1178.408972	1944.800049
1178.961498	1952.400024
1179.513966	1920.0
1180.066378	1935.0
1180.618733	1936.199951
1181.171032	1952.599976
1181.723273	1957.800049
1182.275458	1940.0
1182.827586	1952.199951
1183.379657	1943.199951
1183.931672	1923.400024
1184.48363	1932.599976
1185.035531	1938.400024
1185.587375	1933.800049
1186.139162	1939.0
1186.690893	1923.199951
1187.242567	1921.800049
1187.794184	1925.800049
1188.345745	1928.400024
1188.897249	1918.0
1189.448696	1935.0
1190.000086	1927.400024
1190.55142	1918.800049
1191.102697	1929.800049
1191.653918	1930.800049
1192.205081	1930.400024
1192.756188	1919.800049
1193.307238	1949.800049
1193.858232	1916.800049
1194.409169	1942.599976
1194.960049	1891.800049
1195.510872	1920.199951
1196.061639	1905.599976
1196.612349	1929.599976
1197.163003	1926.400024
1197.713599	1929.199951
1198.264139	1927.199951
1198.814623	1904.400024
1199.36505	1906.199951
1200.465734	1903.199951
1201.01599	1921.0
1201.566191	1915.0
1202.116334	1925.0
1202.666421	1935.199951
1203.216452	1889.599976
1203.766425	1903.400024
1204.316343	1895.0
1204.866203	1908.0
1205.416007	1910.199951
1205.965754	1900.0
1206.515445	1900.400024
1207.065079	1901.800049
1207.614657	1891.400024
1208.164177	1895.800049
1208.713642	1905.199951
1209.26305	1899.800049
1209.812401	1887.599976
1210.361695	1902.599976
1210.910933	1904.400024
1211.460115	1894.800049
1212.00924	1906.400024
1212.558308	1896.0
1213.10732	1882.800049
1213.656275	1882.599976
1214.205174	1894.0
1214.754016	1899.800049
1215.302801	1886.0
1215.85153	1899.199951
1216.400203	1892.0
1216.948819	1884.0
1217.497378	1887.800049
1218.045881	1878.199951
1218.594327	1890.400024
1219.142717	1867.400024
1219.691051	1894.800049
1220.239327	1886.400024
1220.787548	1882.800049
1221.335712	1888.599976
1221.883819	1879.599976
1222.43187	1888.400024
1222.979864	1892.400024
1223.527802	1877.199951
1224.075683	1874.400024
1224.623508	1871.800049
1225.171277	1887.800049
1225.718989	1857.0
1226.266644	1870.0
1226.814243	1869.0
1227.361786	1883.199951
1227.909272	1878.800049
1228.456702	1873.0
1229.004075	1868.0
1229.551392	1874.599976
1230.098652	1869.800049
1230.645856	1873.400024
1231.193003	1879.199951
1231.740094	1873.599976
1232.287129	1868.199951
1232.834107	1851.199951
1233.381029	1885.0
1233.927894	1871.199951
1234.474703	1865.400024
1235.021455	1863.0
1235.568151	1848.800049
1236.114791	1853.199951
1236.661374	1879.599976
1237.207901	1862.199951
1237.754372	1855.400024
1238.300786	1854.599976
1238.847144	1846.199951
1239.393445	1858.599976
1239.93969	1868.599976
1240.485879	1860.199951
1241.032011	1851.199951
1241.578087	1847.599976
1242.124106	1851.599976
1242.67007	1861.0
1243.215976	1860.400024
1243.761827	1838.599976
1244.307621	1841.800049
1244.853359	1854.0
1245.39904	1868.400024
1245.944665	1848.800049
1246.490234	1850.800049
1247.035746	1848.400024
1247.581203	1857.199951
1248.126602	1849.800049
1248.671946	1826.599976
1249.217233	1842.0
1249.762464	1846.599976
1250.307638	1851.0
1250.852757	1841.800049
1251.397819	1852.400024
1251.942824	1849.800049
1252.487774	1849.400024
1253.032667	1866.800049
1253.577503	1843.0
1254.122284	1855.400024
1254.667008	1852.199951
1255.211676	1840.400024
1255.756288	1843.800049
1256.300843	1855.0
1256.845342	1843.199951
1257.389785	1848.599976
1257.934172	1836.800049
1258.478502	1842.800049
1259.022776	1836.199951
1259.566994	1836.400024
1260.111156	1865.0
1260.655261	1841.400024
1261.199311	1840.800049
1261.743304	1829.199951
1262.28724	1818.199951
1262.831121	1832.199951
1263.374945	1849.800049
1263.918713	1840.800049
1264.462425	1852.400024
1265.006081	1889.800049
1265.54968	1889.800049
1266.093223	1864.199951
1266.636711	1840.400024
1267.180141	1821.400024
1267.723516	1827.400024
1268.266835	1826.199951
1268.810097	1817.0
1269.353303	1819.400024
1269.896453	1820.599976
1270.439547	1821.199951
1270.982584	1816.800049
1271.525566	1816.599976
1272.068491	1802.800049
1272.61136	1827.599976
1273.154173	1819.599976
1273.69693	1820.400024
1274.239631	1810.199951
1274.782275	1809.599976
1275.324864	1827.400024
1275.867396	1804.599976
1276.409872	1800.0
1276.952292	1817.599976
1277.494656	1819.0
1278.036964	1801.599976
1278.579215	1805.800049
1279.121411	1833.199951
1279.66355	1809.400024
1280.205634	1816.199951
1280.747661	1816.599976
1281.289632	1821.400024
1281.831547	1823.199951
1282.373406	1829.800049
1282.915209	1835.599976
1283.456955	1818.199951
1283.998646	1866.199951
1284.540281	1980.599976
1285.081859	2378.399902
1285.623381	3008.600098
1286.164848	2439.199951
1286.706258	1969.599976
1287.247612	1869.0
1287.788911	1819.400024
1288.330153	1827.800049
1288.871339	1819.599976
1289.412469	1796.0
1289.953543	1800.0
1290.494561	1805.800049
1291.035523	1798.800049
1291.576428	1803.400024
1292.117278	1797.800049
1292.658072	1797.199951
1293.19881	1796.400024
1293.739492	1789.0
1294.280118	1801.800049
1294.820687	1778.199951
1295.361201	1802.599976
1295.901659	1786.800049
1296.442061	1785.199951
1296.982406	1773.400024
1297.522696	1775.0
1298.06293	1783.0
1298.603108	1780.800049
1299.143229	1796.0
1299.683295	1765.400024
1300.223305	1771.599976
1300.763259	1788.199951
1301.303157	1770.400024
1301.842999	1790.800049
1302.382785	1765.199951
1302.922515	1773.199951
1303.462189	1773.599976
1304.001807	1791.199951
1304.541369	1779.599976
1305.080875	1790.800049
1305.620326	1795.800049
1306.15972	1769.400024
1306.699058	1769.0
1307.238341	1778.800049
1307.777567	1782.599976
1308.316738	1778.599976
1308.855853	1774.199951
1309.394912	1768.599976
1309.933915	1774.199951
1310.472862	1759.599976
1311.011753	1777.599976
1311.550588	1770.0
1312.089367	1775.0
1312.62809	1787.0
1313.166758	1780.0
1313.70537	1774.199951
1314.243925	1757.800049
1314.782425	1775.599976
1315.320869	1760.0
1315.859257	1755.800049
1316.397589	1748.800049
1316.935866	1763.400024
1317.474086	1736.0
1318.012251	1751.199951
1318.55036	1754.199951
1319.088413	1757.599976
1319.62641	1766.199951
1320.164351	1745.199951
1320.702236	1747.400024
1321.240066	1756.199951
1321.777839	1750.0
1322.315557	1776.800049
1322.853219	1757.199951
1323.390826	1754.400024
1323.928376	1754.599976
1324.465871	1753.800049
1325.003309	1755.599976
1325.540692	1764.199951
1326.07802	1761.0
1326.615291	1747.199951
1327.152506	1759.599976
1327.689666	1736.0
1328.22677	1755.199951
1328.763818	1733.400024
1329.300811	1753.400024
1329.837747	1754.599976
1330.374628	1739.599976
1330.911453	1739.800049
1331.448222	1749.400024
1331.984936	1739.400024
1332.521594	1747.599976
1333.058196	1746.800049
1333.594742	1757.0
1334.131232	1748.400024
1334.667667	1748.0
1335.204046	1724.0
1335.740369	1732.0
1336.276637	1749.800049
1336.812848	1749.800049
1337.349004	1727.599976
1337.885105	1753.400024
1338.421149	1730.400024
1338.957138	1727.400024
1339.493071	1727.800049
1340.028949	1719.199951
1340.56477	1736.599976
1341.100536	1733.199951
1341.636246	1746.400024
1342.171901	1713.199951
1342.7075	1733.0
1343.243043	1714.599976
1343.77853	1731.0
1344.313962	1742.0
1344.849338	1724.400024
1345.384659	1736.599976
1345.919923	1724.400024
1346.455133	1708.599976
1346.990286	1737.599976
1347.525384	1735.0
1348.060426	1727.599976
1348.595412	1733.400024
1349.130343	1705.0
1349.665218	1715.0
1350.200037	1709.599976
1350.734801	1713.400024
1351.269509	1721.400024
1351.804162	1726.0
1352.338758	1721.0
1352.8733	1703.400024
1353.407785	1718.0
1353.942215	1728.400024
1354.476589	1709.599976
1355.010908	1722.199951
1355.545171	1712.400024
1356.079379	1712.400024
1356.61353	1724.0
1357.147627	1717.599976
1357.681667	1712.400024
1358.215652	1730.0
1358.749582	1706.800049
1359.283456	1723.800049
1359.817274	1727.199951
1360.351037	1712.800049
1360.884744	1714.0
1361.418395	1714.599976
1361.951991	1717.0
1362.485531	1701.199951
1363.019016	1728.199951
1363.552445	1699.0
1364.085819	1728.0
1364.619137	1724.599976
1365.1524	1708.199951
1365.685607	1720.0
1366.218758	1715.199951
1366.751854	1725.400024
1367.284894	1705.199951
1367.817879	1702.0
1368.350808	1710.400024
1368.883682	1711.400024
1369.4165	1696.0
1369.949263	1712.599976
1370.48197	1735.599976
1371.014622	1719.199951
1371.547218	1704.0
1372.079758	1718.800049
1372.612244	1686.400024
1373.144673	1701.199951
1373.677047	1693.0
1374.209366	1703.599976
1374.741629	1687.199951
1375.273836	1704.400024
1375.805989	1694.800049
1376.338085	1682.400024
1376.870126	1700.199951
1377.402112	1704.400024
1377.934042	1709.800049
1378.465917	1695.199951
1378.997736	1719.0
1379.5295	1684.0
1380.061208	1693.400024
1380.592861	1700.800049
1381.124459	1700.0
1381.656	1685.599976
1382.187487	1700.599976
1382.718918	1705.599976
1383.250294	1693.599976
1383.781614	1705.0
1384.312879	1699.599976
1384.844088	1698.400024
1385.375242	1701.400024
1385.90634	1710.599976
1386.437383	1727.599976
1386.968371	1744.599976
1387.499303	1791.599976
1388.03018	2022.400024
1388.561001	3205.0
1389.091767	3638.600098
1389.622478	2222.600098
1390.153133	1812.199951
1390.683733	1732.400024
1391.214277	1703.0
1391.744766	1702.199951
1392.2752	1696.0
1392.805578	1692.0
1393.335901	1701.199951
1393.866168	1689.800049
1394.396381	1687.400024
1394.926537	1682.199951
1395.456639	1674.400024
1395.986685	1667.400024
1396.516675	1665.199951
1397.046611	1689.800049
1397.576491	1671.199951
1398.106315	1663.400024
1398.636084	1683.400024
1399.165798	1678.800049
1399.695457	1668.400024
1400.22506	1674.599976
1400.754608	1689.199951
1401.284101	1691.400024
1401.813538	1674.599976
1402.34292	1682.599976
1402.872247	1681.599976
1403.401518	1673.0
1403.930734	1679.0
1404.459895	1678.599976
1404.989	1688.599976
1405.51805	1685.800049
1406.047045	1684.0
1407.633697	1671.800049
1408.162471	1696.400024
1408.691189	1691.0
1409.219852	1703.800049
1409.74846	1747.0
1410.277013	1815.0
1410.80551	1765.0
1411.333952	1698.599976
1411.862339	1678.199951
1412.39067	1665.0
1412.918946	1669.599976
1413.447167	1678.400024
1413.975333	1673.400024
1414.503444	1666.800049
1415.031499	1663.0
1415.559499	1665.199951
1416.087444	1667.599976
1416.615333	1655.0
1417.143167	1674.199951
1417.670947	1668.800049
1418.19867	1658.599976
1418.726339	1632.400024
1419.253952	1659.0
1419.781511	1653.199951
1420.309014	1653.599976
1420.836461	1670.800049
1421.363854	1653.800049
1421.891191	1673.0
1422.418474	1654.800049
1422.945701	1662.199951
1423.472872	1660.599976
1423.999989	1653.599976
1424.52705	1665.800049
1425.054057	1655.400024
1425.581008	1665.0
1426.107904	1662.400024
1426.634745	1676.599976
1427.16153	1669.599976
1427.688261	1651.800049
1428.214936	1654.0
1428.741556	1652.800049
1429.268121	1659.800049
1429.794631	1648.0
1430.321085	1660.800049
1430.847485	1661.599976
1431.373829	1639.800049
1431.900118	1654.0
1432.426353	1649.599976
1432.952532	1665.199951
1433.478655	1662.0
1434.004724	1650.0
1434.530738	1637.0
1435.056696	1648.0
1435.5826	1656.800049
1436.108448	1641.800049
1436.634241	1641.0
1437.159979	1636.400024
1437.685662	1635.0
1438.21129	1643.199951
1438.736863	1642.400024
1439.262381	1642.400024
1439.787843	1648.800049
1440.313251	1629.599976
1440.838603	1636.199951
1441.3639	1643.599976
1441.889143	1622.599976
1442.41433	1628.0
1442.939462	1641.800049
1443.464539	1625.400024
1443.989561	1633.400024
1444.514528	1644.800049
1445.03944	1651.599976
1445.564297	1632.199951
1446.089099	1641.199951
1446.613846	1630.400024
1447.138537	1634.599976
1447.663174	1632.599976
1448.187756	1625.0
1448.712282	1628.400024
1449.236754	1630.199951
1449.761171	1622.0
1450.285532	1618.199951
1450.809839	1619.199951
1451.33409	1621.599976
1451.858287	1633.199951
1452.382428	1624.0
1452.906515	1623.199951
1453.430546	1622.199951
1453.954523	1621.400024
1454.478444	1623.0
1455.002311	1624.400024
1455.526123	1627.599976
1456.049879	1634.0
1456.573581	1646.0
1457.097227	1602.0
1457.620819	1625.400024
1458.144356	1619.800049
1458.667837	1630.199951
1459.191264	1621.400024
1459.714636	1623.199951
1460.237952	1626.400024
1460.761214	1619.199951
1461.284421	1619.199951
1461.807573	1608.800049
1462.33067	1618.800049
1462.853712	1612.199951
1463.376699	1631.199951
1463.899632	1625.199951
1464.422509	1615.0
1464.945331	1629.800049
1465.468099	1622.599976
1465.990811	1623.800049
1466.513469	1625.800049
1467.036071	1621.800049
1467.558619	1615.199951
1468.081112	1627.0
1468.60355	1612.199951
1469.125933	1613.400024
1469.648261	1620.400024
1470.170534	1623.0
1470.692752	1611.400024
1471.214916	1603.400024
1471.737024	1605.599976
1472.259078	1616.0
1472.781077	1607.0
1473.303021	1603.599976
1473.82491	1615.400024
1474.346744	1594.199951
1474.868523	1592.599976
1475.390248	1608.400024
1475.911917	1604.0
1476.433532	1602.0
1476.955092	1619.400024
1477.476597	1591.199951
1477.998047	1601.199951
1478.519442	1589.0
1479.040783	1603.0
1479.562068	1600.0
1480.083299	1592.800049
1480.604475	1600.800049
1481.125596	1591.199951
1481.646663	1608.800049
1482.167674	1606.800049
1482.688631	1582.400024
1483.209533	1593.199951
1483.73038	1597.400024
1484.251172	1588.599976
1484.771909	1590.0
1485.292592	1594.800049
1485.81322	1580.800049
1486.333793	1588.199951
1486.854311	1597.800049
1487.374775	1589.0
1487.895183	1587.400024
1488.415537	1584.0
1488.935836	1593.400024
1489.456081	1587.599976
1489.97627	1584.599976
1490.496405	1584.400024
1491.016485	1591.199951
1491.536511	1595.199951
1492.056481	1587.599976
1492.576397	1592.400024
1493.096258	1583.599976
1493.616064	1587.800049
1494.135816	1582.199951
1494.655513	1582.400024
1495.175155	1572.400024
1495.694742	1577.199951
1496.214274	1569.199951
1496.733752	1590.199951
1497.253175	1586.199951
1497.772544	1586.400024
1498.291858	1581.800049
1498.811116	1582.800049
1499.330321	1572.400024
1499.84947	1589.199951
1500.368565	1586.0
1500.887605	1580.599976
1501.406591	1599.800049
1501.925521	1581.199951
1502.444397	1581.199951
1502.963219	1571.400024
1503.481985	1570.599976
1504.000697	1575.0
1504.519355	1575.400024
1505.037957	1576.800049
1505.556505	1575.199951
1506.074999	1577.599976
1506.593437	1576.400024
1507.111821	1587.800049
1507.63015	1568.800049
1508.148425	1570.800049
1508.666645	1579.400024
1509.18481	1568.400024
1509.702921	1583.0
1510.220977	1563.400024
1510.738979	1591.0
1511.256925	1573.800049
1511.774817	1571.199951
1512.292655	1569.199951
1512.810438	1574.400024
1513.328166	1570.199951
1513.84584	1560.0
1514.363459	1576.400024
1514.881023	1584.400024
1515.398533	1570.0
1515.915988	1561.400024
1516.433389	1566.400024
1516.950734	1554.199951
1517.468026	1570.800049
1517.985263	1573.400024
1518.502445	1569.400024
1519.019572	1545.400024
1519.536645	1569.199951
1520.053664	1571.800049
1520.570628	1577.0
1521.087537	1570.599976
1521.604392	1580.800049
1522.121192	1545.800049
1522.637937	1572.599976
1523.154628	1555.599976
1523.671265	1559.199951
1524.187847	1558.0
1524.704374	1549.199951
1525.220847	1546.400024
1525.737265	1556.400024
1526.253629	1552.800049
1526.769938	1583.400024
1527.286192	1570.599976
1527.802392	1572.800049
1528.318538	1560.400024
1528.834629	1554.599976
1529.350666	1545.599976
1529.866648	1556.0
1530.382575	1565.0
1530.898448	1564.199951
1531.414266	1558.199951
1531.93003	1556.800049
1532.44574	1556.199951
1532.961395	1569.400024
1533.476995	1579.800049
1533.992541	1567.599976
1534.508033	1556.800049
1535.02347	1549.599976
1535.538852	1555.0
1536.05418	1563.400024
1536.569454	1553.0
1537.084673	1555.199951
1537.599837	1555.199951
1538.114947	1546.599976
1538.630003	1551.800049
1539.145004	1583.800049
1539.659951	1566.599976
1540.174843	1547.199951
1540.689681	1572.599976
1541.204465	1558.400024
1541.719194	1561.800049
1542.233868	1552.800049
1542.748488	1552.199951
1543.263054	1546.0
1543.777565	1555.0
1544.292022	1555.199951
1544.806424	1557.800049
1545.320772	1562.199951
1545.835066	1549.199951
1546.349305	1560.800049
1546.863489	1548.400024
1547.37762	1553.0
1547.891696	1554.800049
1548.405717	1558.400024
1548.919684	1561.199951
1549.433597	1559.800049
1549.947455	1559.599976
1550.461259	1552.0
1550.975009	1556.400024
1551.488704	1558.599976
1552.002345	1552.400024
1552.515931	1550.0
1553.029463	1555.0
1553.542941	1559.0
1554.056364	1548.800049
1554.569733	1559.599976
1555.083048	1539.800049
1555.596308	1545.199951
1556.109514	1547.400024
1556.622665	1554.599976
1557.135762	1543.199951
1557.648805	1549.800049
1558.161794	1551.0
1558.674728	1554.0
1559.187608	1540.400024
1559.700433	1543.800049
1560.213205	1547.400024
1560.725921	1550.400024
1561.238584	1562.199951
1561.751192	1566.800049
1562.263746	1548.599976
1562.776246	1547.800049
1563.288691	1556.800049
1563.801082	1534.599976
1564.313419	1553.800049
1564.825701	1552.199951
1565.337929	1540.800049
1565.850103	1563.199951
1566.362223	1546.0
1566.874288	1549.0
1567.386299	1548.0
1567.898256	1547.199951
1568.410158	1538.199951
1568.922007	1553.0
1569.4338	1536.800049
1569.94554	1543.199951
1570.457226	1536.400024
1570.968857	1546.199951
1571.480434	1551.599976
1571.991956	1561.599976
1572.503425	1538.800049
1573.014839	1535.599976
1573.526199	1549.800049
1574.037505	1540.599976
1574.548756	1546.800049
1575.059953	1549.199951
1575.571096	1558.599976
1576.082185	1556.800049
1576.59322	1557.800049
1577.1042	1541.599976
1577.615126	1547.800049
1578.125998	1555.199951
1578.636816	1541.400024
1579.14758	1540.199951
1579.658289	1542.599976
1580.168944	1539.0
1580.679545	1536.199951
1581.190092	1536.199951
1581.700585	1532.0
1582.211023	1539.400024
1582.721407	1564.199951
1583.231737	1538.800049
1583.742013	1540.599976
1584.252235	1537.800049
1584.762403	1550.199951
1585.272516	1546.199951
1585.782575	1546.599976
1586.292581	1550.199951
1586.802532	1531.599976
1587.312428	1550.599976
1587.822271	1531.400024
1588.33206	1539.199951
1588.841794	1533.400024
1589.351474	1534.199951
1589.8611	1522.0
1590.370672	1546.400024
1590.88019	1551.800049
1591.389654	1536.0
1591.899064	1526.0
1592.408419	1530.400024
