1042.452273	718.7999878
1043.018714	717.4000244
1043.585098	718.4000244
1044.151424	719.2000122
1044.717692	717.5999756
1045.283903	714.7999878
1045.850056	716.5999756
1046.416151	711.0
1046.982188	716.0
1047.548167	710.0
1048.114089	712.4000244
1048.679953	711.0
1049.24576	709.2000122
1049.811509	715.2000122
1050.3772	711.0
1050.942833	711.5999756
1051.508408	704.7999878
1052.073926	710.2000122
1052.639387	713.5999756
1053.204789	711.5999756
1053.770134	707.2000122
1054.335421	708.7999878
1054.900651	708.4000244
1055.465823	705.2000122
1056.030937	709.0
1056.595993	704.2000122
1057.160992	707.4000244
1057.725934	708.4000244
1058.290817	704.2000122
1058.855643	705.2000122
1059.420411	707.0
1059.985122	703.2000122
1060.549775	704.0
1061.114371	705.0
1061.678908	702.0
1062.243389	706.2000122
1062.807811	701.2000122
1063.372176	705.4000244
1063.936483	704.0
1064.500733	704.0
1065.064925	704.7999878
1065.62906	705.2000122
1066.193137	706.5999756
1066.757156	709.5999756
1067.321118	706.4000244
1067.885022	705.4000244
1068.448869	702.5999756
1069.012658	700.4000244
1069.57639	701.4000244
1070.140063	708.0
1070.70368	703.2000122
1071.267239	703.2000122
1071.83074	706.5999756
1072.394184	700.0
1072.95757	701.5999756
1073.520899	700.7999878
1074.08417	705.0
1074.647383	704.4000244
1075.21054	701.4000244
1075.773638	703.0
1076.336679	708.4000244
1076.899663	702.2000122
1077.462589	707.0
1078.025457	703.5999756
1078.588268	703.0
1079.151022	701.2000122
1079.713718	706.5999756
1080.276356	699.7999878
1080.838937	701.7999878
1081.401461	707.4000244
1081.963927	704.2000122
1082.526336	705.0
1083.088687	701.4000244
1083.650981	705.2000122
1084.213217	706.5999756
1084.775396	702.7999878
1085.337517	700.4000244
1085.899581	701.4000244
1086.461587	703.2000122
1087.023536	700.7999878
1087.585428	702.7999878
1088.147262	702.7999878
1088.709039	705.7999878
1089.270758	704.2000122
1089.83242	702.2000122
1090.394024	701.5999756
1090.955571	702.2000122
1091.517061	699.2000122
1092.078493	698.7999878
1092.639868	703.5999756
1093.201185	704.4000244
1093.762445	701.4000244
1094.323648	701.5999756
1094.884793	705.2000122
1095.445881	703.5999756
1096.006911	704.5999756
1096.567884	702.7999878
1097.1288	704.4000244
1097.689659	702.0
1098.25046	701.5999756
1098.811203	703.2000122
1099.37189	702.0
1099.932518	700.2000122
1100.49309	701.5999756
1101.053604	701.5999756
1101.614061	701.7999878
1102.174461	702.5999756
1102.734803	703.4000244
1103.295088	699.7999878
1103.855316	702.5999756
1104.415486	702.0
1104.975599	703.0
1105.535655	702.2000122
1106.095653	701.4000244
1106.655594	706.5999756
1107.215478	701.0
1107.775305	704.7999878
1108.335074	701.5999756
1108.894786	703.5999756
1109.45444	698.7999878
1110.014038	699.7999878
1110.573578	700.0
1111.133061	702.2000122
1111.692486	702.4000244
1112.251854	703.2000122
1112.811165	701.4000244
1113.370419	700.7999878
1113.929616	705.5999756
1114.488755	701.2000122
1115.047837	697.7999878
1115.606862	704.2000122
1116.16583	703.2000122
1116.72474	707.0
1117.283593	703.4000244
1117.842389	704.5999756
1118.401128	700.5999756
1118.959809	706.4000244
1119.518433	702.0
1120.077	704.5999756
1120.63551	706.4000244
1121.193963	703.5999756
1121.752358	705.2000122
1122.310697	707.4000244
1122.868978	704.7999878
1123.427202	708.5999756
1123.985368	705.4000244
1124.543478	704.0
1125.10153	702.7999878
1125.659526	703.5999756
1126.217464	704.7999878
1126.775345	702.7999878
1127.333168	700.4000244
1127.890935	700.5999756
1128.448644	704.5999756
1129.006297	705.2000122
1129.563892	700.0
1130.12143	704.5999756
1130.678911	700.2000122
1131.236335	703.4000244
1131.793701	701.0
1132.351011	698.5999756
1132.908263	704.5999756
1133.465458	705.7999878
1134.022597	704.4000244
1134.579678	700.5999756
1135.136702	704.2000122
1135.693669	697.4000244
1136.250578	706.7999878
1136.807431	701.7999878
1137.364227	705.5999756
1137.920965	708.0
1138.477647	702.5999756
1139.034271	707.4000244
1139.590839	702.5999756
1140.147349	705.7999878
1140.703802	703.7999878
1141.260198	708.4000244
1141.816537	708.2000122
1142.37282	707.4000244
1142.929045	713.7999878
1143.485213	718.4000244
1144.041323	732.5999756
1144.597377	725.4000244
1145.153374	714.0
1145.709314	707.7999878
1146.265197	713.5999756
1146.821023	720.5999756
1147.376792	738.7999878
1147.932503	758.2000122
1148.488158	769.2000122
1149.043756	759.4000244
1149.599297	783.0
1150.154781	837.2000122
1150.710207	973.4000244
1151.265577	1109.199951
1151.82089	995.4000244
1152.376146	779.0
1152.931345	719.7999878
1153.486487	708.0
1154.041572	707.5999756
1154.5966	704.0
1155.151571	705.0
1155.706485	701.5999756
1156.261342	702.7999878
1156.816142	701.4000244
1157.370885	701.2000122
1157.925572	699.4000244
1158.480201	701.7999878
1159.034774	702.5999756
1159.589289	702.7999878
1160.143748	700.4000244
1160.698149	705.5999756
1161.252494	703.2000122
1161.806782	704.4000244
1162.361013	703.7999878
1162.915187	701.4000244
1163.469304	703.0
1164.023364	703.4000244
1164.577368	704.4000244
1165.131314	704.2000122
1165.685204	704.0
1166.239036	702.5999756
1166.792812	702.5999756
1167.346531	706.4000244
1167.900193	701.5999756
1168.453798	698.2000122
1169.007347	706.4000244
1169.560838	706.0
1170.114273	703.7999878
1170.66765	701.7999878
1171.220971	700.4000244
1171.774235	705.5999756
1172.327443	702.5999756
1172.880593	701.0
1173.433687	701.2000122
1173.986723	698.5999756
1174.539703	702.4000244
1175.092626	700.2000122
1175.645493	698.2000122
1176.198302	700.2000122
1176.751055	703.4000244
1177.303751	704.5999756
1177.85639	700.4000244
1178.408972	702.2000122
1178.961498	700.7999878
1179.513966	699.7999878
1180.066378	702.0
1180.618733	702.0
1181.171032	702.4000244
1181.723273	705.2000122
1182.275458	701.2000122
1182.827586	699.0
1183.379657	698.4000244
1183.931672	702.5999756
1184.48363	706.4000244
1185.035531	698.5999756
1185.587375	704.7999878
1186.139162	701.5999756
1186.690893	697.5999756
1187.242567	699.7999878
1187.794184	699.2000122
1188.345745	700.7999878
1188.897249	701.2000122
1189.448696	700.0
1190.000086	695.7999878
1190.55142	700.2000122
1191.102697	701.2000122
1191.653918	704.5999756
1192.205081	699.7999878
1192.756188	696.2000122
1193.858232	697.4000244
1194.409169	697.7999878
1194.960049	702.7999878
1195.510872	701.7999878
1196.061639	700.0
1196.612349	699.2000122
1197.163003	701.5999756
1197.713599	697.7999878
1198.264139	697.5999756
1198.814623	701.4000244
1199.36505	695.7999878
1199.91542	699.2000122
1200.465734	698.0
1201.01599	696.4000244
1201.566191	702.0
1202.116334	700.5999756
1202.666421	698.0
1203.216452	698.5999756
1203.766425	696.7999878
1204.316343	699.7999878
1204.866203	700.0
1205.416007	699.4000244
1205.965754	697.0
1206.515445	699.5999756
1207.065079	698.0
1207.614657	700.4000244
1208.164177	696.4000244
1208.713642	694.4000244
1209.26305	703.2000122
1209.812401	696.5999756
1210.361695	700.2000122
1210.910933	694.7999878
1211.460115	697.4000244
1212.00924	693.5999756
1212.558308	697.0
1213.10732	697.5999756
1213.656275	692.7999878
1214.205174	700.2000122
1214.754016	697.0
1215.302801	698.5999756
1215.85153	698.0
1216.400203	698.2000122
1216.948819	693.5999756
1217.497378	699.7999878
1218.045881	698.7999878
1218.594327	697.5999756
1219.142717	694.2000122
1219.691051	697.4000244
1220.239327	698.4000244
1220.787548	695.7999878
1221.335712	693.7999878
1221.883819	700.0
1222.43187	697.2000122
1222.979864	693.5999756
1223.527802	694.7999878
1224.075683	699.0
1224.623508	696.7999878
1225.171277	695.0
1225.718989	701.0
1226.266644	695.0
1226.814243	698.4000244
1227.361786	698.4000244
1227.909272	697.4000244
1228.456702	694.0
1229.004075	700.4000244
1229.551392	693.0
1230.098652	694.7999878
1230.645856	696.7999878
1231.193003	695.2000122
1231.740094	701.2000122
1232.287129	694.0
1232.834107	693.4000244
1233.381029	695.7999878
1233.927894	698.2000122
1234.474703	692.7999878
1235.021455	693.4000244
1235.568151	695.0
1236.114791	694.5999756
1236.661374	695.4000244
1237.207901	695.4000244
1237.754372	696.7999878
1238.300786	695.2000122
1238.847144	696.0
1239.393445	696.7999878
1239.93969	694.7999878
1240.485879	694.4000244
1241.032011	695.0
1241.578087	694.7999878
1242.124106	695.7999878
1242.67007	696.7999878
1243.215976	698.5999756
1243.761827	695.2000122
1244.307621	698.5999756
1244.853359	695.0
1245.39904	693.7999878
1245.944665	699.5999756
1246.490234	695.0
1247.035746	693.7999878
1247.581203	697.5999756
1248.126602	693.0
1248.671946	692.4000244
1249.217233	695.7999878
1249.762464	693.5999756
1250.307638	700.0
1250.852757	697.4000244
1251.397819	696.4000244
1251.942824	691.7999878
1252.487774	697.0
1253.032667	694.0
1253.577503	697.2000122
1254.122284	696.2000122
1254.667008	700.7999878
1255.211676	694.0
1255.756288	691.5999756
1256.300843	698.0
1256.845342	699.2000122
1257.389785	694.5999756
1257.934172	693.0
1258.478502	697.0
1259.022776	697.5999756
1259.566994	697.2000122
1260.111156	703.2000122
1260.655261	697.7999878
1261.199311	694.7999878
1261.743304	697.0
1262.28724	699.2000122
1262.831121	690.4000244
1263.374945	694.4000244
1263.918713	694.7999878
1264.462425	696.2000122
1265.006081	699.0
1265.54968	703.2000122
1266.093223	702.4000244
1266.636711	697.2000122
1267.180141	695.7999878
1267.723516	694.5999756
1268.266835	695.4000244
1268.810097	695.7999878
1269.353303	699.5999756
1269.896453	695.4000244
1270.439547	698.5999756
1270.982584	697.2000122
1271.525566	696.0
1272.068491	696.7999878
1272.61136	694.2000122
1273.154173	694.2000122
1273.69693	694.2000122
1274.239631	695.0
1274.782275	695.4000244
1275.324864	695.7999878
1275.867396	691.7999878
1276.409872	690.0
1276.952292	693.7999878
1277.494656	698.4000244
1278.036964	695.4000244
1278.579215	695.2000122
1279.121411	693.0
1279.66355	695.2000122
1280.205634	698.0
1280.747661	693.2000122
1281.289632	694.5999756
1281.831547	696.2000122
1282.373406	692.4000244
1282.915209	697.4000244
1283.456955	699.4000244
1283.998646	694.0
1284.540281	696.4000244
1285.081859	698.2000122
1285.623381	736.5999756
1286.164848	815.2000122
1286.706258	727.0
1287.247612	695.2000122
1287.788911	694.2000122
1288.330153	693.5999756
1288.871339	693.5999756
1289.412469	692.5999756
1289.953543	697.4000244
1290.494561	700.7999878
1291.035523	693.7999878
1291.576428	693.4000244
1292.117278	696.4000244
1292.658072	693.7999878
1293.19881	694.7999878
1293.739492	691.4000244
1294.280118	693.0
1294.820687	694.0
1295.361201	693.7999878
1295.901659	697.4000244
1296.442061	693.2000122
1296.982406	691.5999756
1297.522696	693.5999756
1298.06293	698.2000122
1298.603108	694.2000122
1299.143229	696.4000244
1299.683295	699.0
1300.223305	693.0
1300.763259	699.4000244
1301.303157	695.2000122
1301.842999	698.5999756
1302.382785	694.2000122
1302.922515	691.4000244
1303.462189	694.7999878
1304.001807	694.2000122
1304.541369	696.2000122
1305.080875	694.2000122
1305.620326	696.4000244
1306.15972	699.0
1306.699058	693.4000244
1307.238341	695.0
1307.777567	695.0
1308.316738	697.0
1308.855853	692.2000122
1309.394912	694.7999878
1309.933915	693.7999878
1310.472862	692.0
1311.011753	697.5999756
1311.550588	697.5999756
1312.089367	693.0
1312.62809	698.0
1313.166758	696.2000122
1313.70537	696.0
1314.243925	697.2000122
1314.782425	694.2000122
1315.320869	694.4000244
1315.859257	695.0
1316.397589	694.5999756
1316.935866	694.4000244
1317.474086	697.4000244
1318.012251	693.2000122
1318.55036	696.4000244
1319.088413	699.2000122
1319.62641	695.4000244
1320.164351	696.5999756
1320.702236	690.2000122
1321.240066	696.5999756
1321.777839	695.2000122
1322.315557	697.2000122
1322.853219	693.7999878
1323.390826	696.0
1323.928376	695.0
1324.465871	698.0
1325.003309	695.7999878
1325.540692	694.5999756
1326.07802	696.4000244
1326.615291	694.7999878
1327.152506	691.4000244
1327.689666	698.5999756
1328.22677	693.4000244
1328.763818	694.0
1329.300811	693.4000244
1329.837747	691.4000244
1330.374628	696.4000244
1330.911453	695.0
1331.448222	693.4000244
1331.984936	691.5999756
1332.521594	692.4000244
1333.058196	699.0
1333.594742	696.2000122
1334.131232	695.7999878
1334.667667	695.0
1335.204046	692.0
1335.740369	694.5999756
1336.276637	694.4000244
1336.812848	695.0
1337.349004	694.2000122
1337.885105	692.4000244
1338.421149	692.4000244
1338.957138	692.7999878
1339.493071	692.7999878
1340.028949	692.7999878
1340.56477	694.4000244
1341.100536	695.4000244
1341.636246	694.2000122
1342.171901	693.4000244
1342.7075	694.4000244
1343.243043	694.5999756
1343.77853	695.0
1344.313962	691.5999756
1344.849338	696.0
1345.384659	695.4000244
1345.919923	691.7999878
1346.455133	690.2000122
1346.990286	694.0
1347.525384	691.4000244
1348.060426	693.2000122
1348.595412	694.2000122
1349.130343	694.7999878
1349.665218	693.5999756
1350.200037	696.0
1350.734801	691.5999756
1351.269509	695.5999756
1351.804162	691.7999878
1352.338758	696.5999756
1352.8733	698.0
1353.407785	688.5999756
1353.942215	695.2000122
1354.476589	696.4000244
1355.010908	697.4000244
1355.545171	698.0
1356.079379	695.7999878
1356.61353	693.5999756
1357.147627	693.7999878
1357.681667	693.5999756
1358.215652	695.5999756
1358.749582	696.0
1359.283456	691.7999878
1359.817274	694.5999756
1360.351037	697.4000244
1360.884744	696.0
1361.418395	695.2000122
1361.951991	690.5999756
1362.485531	691.4000244
1363.019016	696.0
1363.552445	697.0
1364.085819	697.4000244
1364.619137	693.7999878
1365.1524	693.0
1365.685607	696.0
1366.218758	694.0
1366.751854	694.2000122
1367.284894	692.0
1367.817879	695.5999756
1368.350808	697.5999756
1368.883682	699.2000122
1369.4165	695.2000122
1369.949263	694.5999756
1370.48197	695.4000244
1371.014622	696.2000122
1371.547218	695.4000244
1372.079758	691.5999756
1372.612244	693.0
1373.144673	692.4000244
1373.677047	695.5999756
1374.209366	694.2000122
1374.741629	694.5999756
1375.273836	694.2000122
1375.805989	693.5999756
1376.338085	697.2000122
1376.870126	694.2000122
1377.402112	692.5999756
1377.934042	691.2000122
1378.465917	691.7999878
1378.997736	689.7999878
1379.5295	694.4000244
1380.061208	694.4000244
1380.592861	692.7999878
1381.124459	692.2000122
1381.656	691.0
1382.187487	695.0
1382.718918	693.7999878
1383.250294	692.7999878
1383.781614	690.4000244
1384.312879	690.7999878
1384.844088	695.2000122
1385.375242	694.7999878
1385.90634	694.2000122
1386.437383	693.2000122
1386.968371	694.2000122
1387.499303	693.7999878
1388.03018	696.0
1388.561001	740.4000244
1389.091767	876.2000122
1389.622478	762.0
1390.153133	697.0
1390.683733	691.7999878
1391.214277	694.7999878
1391.744766	690.5999756
1392.2752	691.4000244
1392.805578	692.4000244
1393.335901	696.0
1393.866168	697.2000122
1394.396381	690.7999878
1394.926537	692.2000122
1395.456639	690.7999878
1395.986685	690.0
1396.516675	692.5999756
1397.046611	692.7999878
1397.576491	691.0
1398.106315	690.5999756
1398.636084	692.4000244
1399.165798	690.7999878
1399.695457	695.5999756
1400.22506	691.7999878
1400.754608	687.5999756
1401.284101	692.5999756
1401.813538	688.2000122
1402.34292	692.0
1402.872247	694.4000244
1403.401518	689.7999878
1403.930734	692.7999878
1404.459895	693.2000122
1404.989	692.5999756
1405.51805	690.5999756
1406.047045	692.0
1406.575984	687.5999756
1407.104869	694.4000244
1407.633697	691.7999878
1408.162471	694.2000122
1408.691189	691.0
1409.219852	688.7999878
1409.74846	693.5999756
1410.277013	706.2000122
1410.80551	701.7999878
1411.333952	692.5999756
1411.862339	689.0
1412.39067	692.4000244
1412.918946	691.0
1413.447167	693.4000244
1413.975333	688.7999878
1414.503444	692.4000244
1415.031499	692.2000122
1415.559499	698.0
1416.087444	688.0
1416.615333	692.0
1417.143167	690.5999756
1417.670947	690.0
1418.19867	689.5999756
1418.726339	689.5999756
1419.253952	689.0
1419.781511	689.7999878
1420.309014	692.5999756
1420.836461	689.5999756
1421.363854	692.4000244
1421.891191	689.5999756
1422.418474	691.2000122
1422.945701	690.5999756
1423.472872	690.4000244
1423.999989	689.2000122
1424.52705	692.0
1425.054057	689.0
1425.581008	690.0
1426.107904	690.5999756
1426.634745	690.7999878
1427.16153	690.7999878
1427.688261	692.2000122
1428.214936	691.7999878
1428.741556	694.0
1429.268121	692.7999878
1429.794631	687.7999878
1430.321085	691.4000244
1430.847485	694.4000244
1431.373829	688.4000244
1431.900118	687.4000244
1432.426353	685.7999878
1432.952532	692.2000122
1433.478655	689.7999878
1434.004724	689.5999756
1434.530738	691.5999756
1435.056696	692.5999756
1435.5826	686.7999878
1436.108448	692.0
1436.634241	687.7999878
1437.159979	689.2000122
1437.685662	686.0
1438.21129	693.0
1438.736863	692.0
1439.262381	686.5999756
1439.787843	689.7999878
1440.313251	691.2000122
1440.838603	689.2000122
1441.3639	689.2000122
1441.889143	690.2000122
1442.41433	687.4000244
1442.939462	688.2000122
1443.464539	689.5999756
1443.989561	691.2000122
1444.514528	688.7999878
1445.03944	691.2000122
1445.564297	686.2000122
1446.089099	691.4000244
1446.613846	688.4000244
1447.138537	691.0
1447.663174	694.0
1448.187756	689.4000244
1448.712282	687.2000122
1449.236754	690.4000244
1449.761171	687.2000122
1450.285532	689.5999756
1450.809839	690.5999756
1451.33409	687.7999878
1451.858287	691.2000122
1452.382428	690.0
1452.906515	691.0
1453.430546	689.5999756
1453.954523	690.7999878
1454.478444	686.5999756
1455.002311	693.0
1455.526123	692.0
1456.049879	691.7999878
1456.573581	689.2000122
1457.097227	689.2000122
1457.620819	687.4000244
1458.144356	691.7999878
1458.667837	690.0
1459.191264	690.5999756
1459.714636	691.4000244
1460.237952	688.4000244
1460.761214	687.5999756
1461.284421	692.0
1461.807573	686.7999878
1462.33067	688.5999756
1462.853712	689.5999756
1463.376699	685.4000244
1463.899632	688.4000244
1464.422509	696.5999756
1464.945331	693.2000122
1465.468099	690.4000244
1465.990811	693.2000122
1466.513469	690.4000244
1467.036071	688.5999756
1467.558619	689.4000244
1468.081112	691.7999878
1468.60355	690.4000244
1469.125933	691.0
1469.648261	689.5999756
1470.170534	691.5999756
1470.692752	686.4000244
1471.214916	687.7999878
1471.737024	688.7999878
1472.259078	690.5999756
1472.781077	690.4000244
1473.303021	690.2000122
1473.82491	688.7999878
1474.346744	689.7999878
1474.868523	685.2000122
1475.390248	689.0
1475.911917	689.4000244
1476.433532	692.2000122
1476.955092	690.7999878
1477.476597	689.0
1477.998047	688.4000244
1478.519442	684.2000122
1479.040783	685.5999756
1479.562068	691.7999878
1480.083299	688.4000244
1480.604475	687.4000244
1481.125596	690.7999878
1481.646663	693.2000122
1482.167674	689.5999756
1482.688631	689.5999756
1483.209533	687.7999878
1483.73038	689.0
1484.251172	691.4000244
1484.771909	689.4000244
1485.292592	685.2000122
1485.81322	691.2000122
1486.333793	689.5999756
1486.854311	690.4000244
1487.374775	692.2000122
1487.895183	690.4000244
1488.415537	688.4000244
1488.935836	687.7999878
1489.456081	693.0
1489.97627	687.0
1490.496405	683.4000244
1491.016485	689.7999878
1491.536511	690.4000244
1492.056481	691.7999878
1492.576397	689.7999878
1493.096258	689.7999878
1493.616064	685.2000122
1494.135816	691.2000122
1494.655513	689.2000122
1495.175155	689.2000122
1495.694742	688.2000122
1496.214274	688.5999756
1496.733752	685.0
1497.253175	689.0
1497.772544	690.4000244
1498.291858	690.0
1498.811116	686.7999878
1499.330321	686.5999756
1499.84947	694.2000122
1500.368565	688.7999878
1500.887605	688.0
1501.406591	689.5999756
1501.925521	687.2000122
1502.444397	689.5999756
1502.963219	690.4000244
1503.481985	687.5999756
1504.000697	688.4000244
1504.519355	689.7999878
1505.037957	688.7999878
1505.556505	692.2000122
1506.074999	688.0
1506.593437	688.0
1507.111821	685.4000244
1507.63015	689.2000122
1508.148425	685.4000244
1508.666645	688.4000244
1509.18481	686.5999756
1509.702921	688.0
1510.220977	690.5999756
1510.738979	695.4000244
1511.256925	693.4000244
1511.774817	691.7999878
1512.292655	692.0
1512.810438	687.4000244
1513.328166	689.7999878
1513.84584	690.0
1514.363459	685.7999878
1514.881023	687.0
1515.398533	686.4000244
1515.915988	685.0
1516.433389	689.2000122
1516.950734	685.7999878
1517.468026	686.7999878
1517.985263	689.4000244
1518.502445	687.0
1519.019572	686.7999878
1519.536645	689.4000244
1520.053664	690.0
1520.570628	687.5999756
1521.087537	687.5999756
1521.604392	687.5999756
1522.121192	685.0
1522.637937	687.0
1523.154628	688.2000122
1523.671265	687.2000122
1524.187847	688.0
1524.704374	687.4000244
1525.220847	684.7999878
1525.737265	691.5999756
1526.253629	691.4000244
1526.769938	688.4000244
1527.286192	686.4000244
1527.802392	690.4000244
1528.318538	686.7999878
1528.834629	685.0
1529.350666	689.5999756
1529.866648	687.0
1530.382575	688.7999878
1530.898448	689.2000122
1531.414266	689.4000244
1531.93003	688.2000122
1532.44574	688.4000244
1532.961395	687.5999756
1533.476995	687.4000244
1533.992541	689.5999756
1534.508033	684.7999878
1535.02347	687.5999756
1535.538852	684.2000122
1536.05418	689.0
1536.569454	687.4000244
1537.084673	686.5999756
1537.599837	687.7999878
1538.114947	687.5999756
1538.630003	688.5999756
1539.145004	687.0
1539.659951	690.0
1540.174843	681.4000244
1540.689681	685.4000244
1541.204465	687.0
1541.719194	686.0
1542.233868	685.5999756
1542.748488	690.5999756
1543.263054	688.0
1543.777565	687.5999756
1544.292022	683.2000122
1544.806424	686.4000244
1545.320772	689.4000244
1545.835066	686.0
1546.349305	688.2000122
1546.863489	683.7999878
1547.37762	689.5999756
1547.891696	686.5999756
1548.405717	685.5999756
1548.919684	687.2000122
1549.433597	689.7999878
1549.947455	688.7999878
1550.461259	686.5999756
1550.975009	686.0
1551.488704	685.4000244
1552.002345	686.7999878
1552.515931	687.5999756
1553.029463	686.7999878
1553.542941	685.2000122
1554.056364	690.2000122
1554.569733	683.5999756
1555.083048	686.2000122
1555.596308	686.2000122
1556.109514	686.5999756
1556.622665	687.4000244
1557.135762	686.7999878
1557.648805	688.7999878
1558.161794	690.7999878
1558.674728	682.4000244
1559.187608	687.0
1559.700433	685.5999756
1560.213205	690.2000122
1560.725921	691.0
1561.238584	687.4000244
1561.751192	687.7999878
1562.263746	686.5999756
1562.776246	689.7999878
1563.288691	688.0
1563.801082	685.5999756
1564.313419	685.2000122
1564.825701	685.0
1565.337929	687.4000244
1565.850103	686.0
1566.362223	684.2000122
1566.874288	684.5999756
1567.386299	686.4000244
1567.898256	689.0
1568.410158	686.4000244
1568.922007	684.4000244
1569.4338	685.7999878
1569.94554	686.7999878
1570.457226	687.2000122
1570.968857	688.7999878
1571.480434	686.4000244
1571.991956	684.0
1572.503425	681.7999878
1573.014839	687.7999878
1573.526199	688.7999878
1574.037505	685.7999878
1574.548756	685.4000244
1575.059953	690.4000244
1575.571096	684.4000244
1576.082185	687.0
1576.59322	688.4000244
1577.1042	688.5999756
1577.615126	687.4000244
1578.125998	688.2000122
1578.636816	689.2000122
1579.14758	688.7999878
1579.658289	689.4000244
1580.168944	686.7999878
1580.679545	688.0
1581.190092	687.5999756
1581.700585	683.4000244
1582.211023	689.7999878
1582.721407	691.2000122
1583.231737	686.5999756
1583.742013	686.5999756
1584.252235	686.2000122
1584.762403	687.5999756
1585.272516	686.0
1585.782575	686.5999756
1586.292581	689.2000122
1586.802532	688.5999756
1587.312428	684.0
1587.822271	690.2000122
1588.33206	686.7999878
1588.841794	686.2000122
1589.351474	682.5999756
1589.8611	688.0
1590.370672	684.2000122
1590.88019	687.0
1591.389654	685.4000244
1591.899064	690.4000244
1592.408419	685.7999878
