1042.452273	1435.800049
1043.018714	1432.0
1043.585098	1435.599976
1044.151424	1431.0
1044.717692	1433.199951
1045.283903	1437.400024
1045.850056	1434.0
1046.416151	1428.800049
1046.982188	1430.800049
1047.548167	1434.199951
1048.114089	1421.199951
1048.679953	1434.0
1049.24576	1415.199951
1049.811509	1411.800049
1050.3772	1426.400024
1050.942833	1421.599976
1051.508408	1423.599976
1052.073926	1410.400024
1052.639387	1422.400024
1053.204789	1427.0
1053.770134	1423.400024
1054.335421	1428.0
1054.900651	1423.199951
1055.465823	1412.599976
1056.030937	1414.0
1056.595993	1418.400024
1057.160992	1417.800049
1057.725934	1411.599976
1058.290817	1415.800049
1058.855643	1423.400024
1059.420411	1411.400024
1059.985122	1416.199951
1060.549775	1404.400024
1061.114371	1413.400024
1061.678908	1417.800049
1062.243389	1411.199951
1062.807811	1412.800049
1063.372176	1408.800049
1063.936483	1413.199951
1064.500733	1395.199951
1065.064925	1407.0
1065.62906	1408.800049
1066.193137	1411.199951
1066.757156	1392.199951
1067.321118	1409.0
1067.885022	1401.800049
1068.448869	1407.400024
1069.012658	1409.400024
1069.57639	1394.400024
1070.140063	1415.0
1070.70368	1400.400024
1071.267239	1383.0
1071.83074	1407.199951
1072.394184	1406.400024
1072.95757	1409.599976
1073.520899	1424.199951
1074.08417	1411.0
1074.647383	1397.199951
1075.21054	1402.800049
1075.773638	1396.199951
1076.336679	1395.400024
1076.899663	1385.800049
1077.462589	1397.599976
1078.025457	1389.800049
1078.588268	1405.199951
1079.151022	1403.400024
1079.713718	1401.599976
1080.276356	1402.400024
1080.838937	1393.199951
1081.401461	1399.400024
1081.963927	1419.800049
1082.526336	1394.599976
1083.088687	1394.400024
1083.650981	1382.400024
1084.213217	1399.800049
1084.775396	1372.199951
1085.337517	1396.400024
1085.899581	1390.199951
1086.461587	1390.599976
1087.023536	1387.800049
1087.585428	1394.800049
1088.147262	1367.800049
1088.709039	1395.800049
1089.270758	1391.0
1089.83242	1395.800049
1090.394024	1387.199951
1090.955571	1394.0
1091.517061	1384.599976
1092.078493	1391.400024
1092.639868	1385.599976
1093.201185	1393.400024
1094.323648	1394.599976
1094.884793	1390.199951
1095.445881	1390.199951
1096.006911	1393.199951
1096.567884	1395.800049
1097.1288	1373.0
1097.689659	1378.0
1098.25046	1379.400024
1098.811203	1378.599976
1099.37189	1380.199951
1099.932518	1391.0
1100.49309	1370.400024
1101.053604	1377.199951
1101.614061	1375.599976
1102.174461	1387.0
1102.734803	1370.599976
1103.295088	1382.800049
1103.855316	1374.599976
1104.415486	1364.400024
1104.975599	1373.599976
1105.535655	1377.199951
1106.095653	1379.400024
1106.655594	1365.0
1107.215478	1371.400024
1107.775305	1382.199951
1108.335074	1367.599976
1108.894786	1380.400024
1109.45444	1374.0
1110.014038	1356.800049
1110.573578	1377.400024
1111.133061	1381.400024
1111.692486	1364.0
1112.251854	1359.199951
1112.811165	1358.400024
1113.370419	1364.0
1113.929616	1374.599976
1114.488755	1366.0
1115.047837	1370.800049
1115.606862	1377.0
1116.16583	1358.400024
1116.72474	1363.199951
1117.283593	1361.199951
1117.842389	1358.800049
1118.401128	1353.0
1118.959809	1374.400024
1119.518433	1352.599976
1120.077	1358.400024
1120.63551	1357.599976
1121.193963	1373.800049
1121.752358	1360.800049
1122.310697	1372.199951
1122.868978	1365.599976
1123.427202	1371.0
1123.985368	1362.599976
1124.543478	1365.400024
1125.10153	1359.800049
1125.659526	1367.199951
1126.217464	1342.800049
1126.775345	1353.0
1127.333168	1355.800049
1127.890935	1361.199951
1128.448644	1356.199951
1129.006297	1367.0
1129.563892	1356.199951
1130.12143	1362.0
1130.678911	1364.400024
1131.236335	1353.0
1131.793701	1357.199951
1132.351011	1363.800049
1132.908263	1353.0
1133.465458	1352.0
1134.022597	1357.199951
1134.579678	1358.800049
1135.136702	1370.800049
1135.693669	1359.0
1136.250578	1369.800049
1136.807431	1360.199951
1137.364227	1370.199951
1137.920965	1353.599976
1138.477647	1358.800049
1139.034271	1376.800049
1139.590839	1360.199951
1140.147349	1361.199951
1140.703802	1371.599976
1141.260198	1348.400024
1141.816537	1357.0
1142.37282	1352.400024
1142.929045	1352.0
1143.485213	1353.400024
1144.041323	1355.0
1144.597377	1374.599976
1145.153374	1371.199951
1145.709314	1369.400024
1146.265197	1362.599976
1146.821023	1359.0
1147.376792	1361.199951
1147.932503	1366.800049
1148.488158	1360.199951
1149.043756	1353.800049
1149.599297	1374.400024
1150.154781	1375.199951
1150.710207	1354.400024
1151.265577	1363.800049
1151.82089	1361.800049
1152.376146	1346.599976
1152.931345	1357.199951
1153.486487	1355.800049
1154.041572	1371.599976
1154.5966	1361.800049
1155.151571	1367.199951
1155.706485	1353.0
1156.261342	1370.599976
1156.816142	1370.0
1157.370885	1369.599976
1157.925572	1363.199951
1158.480201	1364.199951
1159.034774	1381.400024
1159.589289	1366.800049
1160.143748	1356.199951
1160.698149	1367.400024
1161.252494	1359.199951
1161.806782	1374.0
1162.361013	1358.400024
1162.915187	1370.599976
1163.469304	1365.599976
1164.023364	1366.599976
1164.577368	1358.400024
1165.131314	1349.599976
1165.685204	1363.800049
1166.239036	1359.800049
1166.792812	1355.0
1167.346531	1358.599976
1167.900193	1339.599976
1168.453798	1375.0
1169.007347	1369.199951
1169.560838	1361.0
1170.114273	1365.0
1170.66765	1369.199951
1171.220971	1359.199951
1171.774235	1351.599976
1172.327443	1355.0
1172.880593	1363.0
1173.433687	1356.599976
1173.986723	1349.599976
1174.539703	1360.0
1175.092626	1360.599976
1175.645493	1377.199951
1176.198302	1369.599976
1176.751055	1365.199951
1177.303751	1355.400024
1177.85639	1354.800049
1178.408972	1365.0
1178.961498	1347.599976
1179.513966	1350.0
1180.066378	1341.0
1180.618733	1357.400024
1181.171032	1364.199951
1181.723273	1349.800049
1182.275458	1369.400024
1182.827586	1363.599976
1183.379657	1336.0
1183.931672	1352.800049
1184.48363	1367.199951
1185.035531	1358.0
1185.587375	1367.0
1186.139162	1376.199951
1186.690893	1337.0
1187.242567	1348.199951
1187.794184	1350.800049
1188.345745	1358.800049
1188.897249	1348.599976
1189.448696	1352.199951
1190.000086	1355.199951
1190.55142	1341.800049
1191.102697	1357.0
1191.653918	1367.400024
1192.205081	1346.199951
1192.756188	1347.800049
1193.307238	1368.800049
1193.858232	1353.599976
1194.409169	1361.800049
1194.960049	1345.199951
1195.510872	1351.0
1196.061639	1352.400024
1196.612349	1353.800049
1197.163003	1348.0
1197.713599	1334.0
1198.264139	1358.400024
1198.814623	1347.599976
1199.36505	1354.400024
1199.91542	1350.0
1200.465734	1337.400024
1201.01599	1352.400024
1201.566191	1349.599976
1202.116334	1344.0
1202.666421	1348.400024
1203.216452	1352.599976
1203.766425	1348.0
1204.316343	1354.599976
1204.866203	1351.599976
1205.416007	1348.599976
1205.965754	1337.0
1206.515445	1349.0
1207.065079	1345.800049
1207.614657	1342.199951
1208.164177	1357.800049
1208.713642	1336.400024
1209.26305	1349.0
1209.812401	1337.400024
1210.361695	1349.599976
1210.910933	1331.800049
1211.460115	1347.599976
1212.00924	1352.599976
1212.558308	1353.599976
1213.10732	1354.800049
1213.656275	1357.599976
1214.205174	1347.400024
1214.754016	1337.800049
1215.302801	1326.199951
1215.85153	1345.0
1216.400203	1341.599976
1216.948819	1340.400024
1217.497378	1333.400024
1218.045881	1336.400024
1218.594327	1347.599976
1219.142717	1344.199951
1219.691051	1352.599976
1220.239327	1338.400024
1220.787548	1348.400024
1221.335712	1348.599976
1221.883819	1338.0
1222.43187	1346.599976
1222.979864	1343.800049
1223.527802	1333.199951
1224.075683	1342.800049
1224.623508	1340.800049
1225.171277	1348.0
1225.718989	1338.800049
1226.266644	1334.599976
1226.814243	1328.599976
1227.361786	1342.199951
1227.909272	1337.400024
1228.456702	1333.599976
1229.004075	1343.599976
1229.551392	1341.599976
1230.098652	1339.599976
1230.645856	1328.199951
1231.193003	1338.400024
1231.740094	1343.599976
1232.287129	1345.199951
1232.834107	1333.800049
1233.381029	1332.199951
1233.927894	1344.0
1234.474703	1322.599976
1235.021455	1324.599976
1235.568151	1337.0
1236.114791	1324.400024
1236.661374	1336.599976
1237.207901	1328.199951
1237.754372	1343.800049
1238.300786	1333.400024
1238.847144	1338.800049
1239.393445	1332.199951
1239.93969	1338.0
1240.485879	1336.400024
1241.032011	1329.599976
1241.578087	1337.199951
1242.124106	1332.400024
1242.67007	1328.0
1243.215976	1331.0
1243.761827	1326.800049
1244.307621	1334.0
1244.853359	1333.599976
1245.39904	1340.0
1245.944665	1334.400024
1246.490234	1335.199951
1247.035746	1342.0
1247.581203	1327.199951
1248.126602	1336.0
1248.671946	1332.800049
1249.217233	1327.599976
1249.762464	1332.599976
1250.307638	1340.599976
1250.852757	1329.199951
1251.397819	1327.199951
1251.942824	1334.0
1252.487774	1337.400024
1253.032667	1314.400024
1253.577503	1340.800049
1254.122284	1330.599976
1254.667008	1329.800049
1255.211676	1325.199951
1255.756288	1329.599976
1256.300843	1324.599976
1256.845342	1335.0
1257.389785	1336.400024
1257.934172	1337.199951
1258.478502	1338.800049
1259.022776	1335.800049
1259.566994	1338.199951
1260.111156	1344.199951
1260.655261	1327.199951
1261.199311	1336.400024
1261.743304	1337.199951
1262.28724	1333.0
1262.831121	1338.599976
1263.374945	1330.199951
1263.918713	1341.400024
1264.462425	1337.599976
1265.006081	1353.599976
1265.54968	1362.599976
1266.093223	1351.199951
1266.636711	1328.199951
1267.180141	1324.0
1267.723516	1336.0
1268.266835	1341.800049
1268.810097	1329.599976
1269.353303	1345.800049
1269.896453	1324.400024
1270.439547	1325.599976
1270.982584	1331.800049
1271.525566	1329.0
1272.068491	1333.599976
1272.61136	1331.400024
1273.154173	1349.400024
1273.69693	1324.400024
1274.239631	1335.0
1274.782275	1322.0
1275.324864	1333.599976
1275.867396	1317.400024
1276.409872	1315.199951
1276.952292	1329.199951
1277.494656	1333.199951
1278.036964	1329.0
1278.579215	1326.800049
1279.121411	1327.800049
1279.66355	1328.199951
1280.205634	1331.0
1280.747661	1337.800049
1281.289632	1324.400024
1281.831547	1328.400024
1282.373406	1332.0
1282.915209	1337.400024
1283.456955	1333.800049
1283.998646	1368.800049
1284.540281	1383.0
1285.081859	1579.0
1285.623381	1852.199951
1286.164848	1573.599976
1286.706258	1381.0
1287.247612	1344.400024
1287.788911	1332.0
1288.330153	1344.0
1288.871339	1329.400024
1289.412469	1330.199951
1289.953543	1333.0
1290.494561	1325.0
1291.035523	1326.199951
1291.576428	1318.800049
1292.117278	1319.800049
1292.658072	1315.599976
1293.19881	1323.800049
1293.739492	1332.199951
1294.280118	1331.800049
1294.820687	1320.400024
1295.361201	1322.800049
1295.901659	1329.599976
1296.442061	1319.599976
1296.982406	1320.199951
1297.522696	1323.800049
1298.06293	1316.0
1298.603108	1310.800049
1299.143229	1321.0
1299.683295	1314.199951
1300.223305	1309.0
1300.763259	1314.400024
1301.303157	1315.599976
1301.842999	1320.199951
1302.382785	1323.400024
1302.922515	1317.800049
1303.462189	1321.400024
1304.001807	1317.400024
1304.541369	1315.199951
1305.080875	1313.400024
1305.620326	1321.199951
1306.15972	1313.199951
1306.699058	1296.800049
1307.238341	1301.800049
1307.777567	1326.199951
1308.316738	1312.599976
1308.855853	1328.400024
1309.394912	1327.199951
1309.933915	1319.599976
1310.472862	1308.400024
1311.011753	1324.199951
1311.550588	1314.400024
1312.089367	1317.199951
1312.62809	1310.0
1313.166758	1318.199951
1313.70537	1303.400024
1314.243925	1314.0
1314.782425	1314.800049
1315.320869	1309.0
1315.859257	1317.599976
1316.397589	1311.199951
1316.935866	1313.800049
1317.474086	1306.400024
1318.012251	1312.400024
1318.55036	1306.199951
1319.088413	1310.599976
1319.62641	1308.599976
1320.164351	1310.800049
1320.702236	1297.0
1321.240066	1320.599976
1321.777839	1300.400024
1322.315557	1315.599976
1322.853219	1313.400024
1323.390826	1308.400024
1323.928376	1307.599976
1324.465871	1317.0
1325.003309	1312.199951
1325.540692	1298.800049
1326.07802	1300.800049
1326.615291	1302.800049
1327.152506	1319.199951
1327.689666	1319.599976
1328.22677	1311.599976
1328.763818	1300.199951
1329.300811	1307.0
1329.837747	1316.199951
1330.374628	1308.800049
1330.911453	1308.199951
1331.448222	1319.800049
1331.984936	1304.400024
1332.521594	1305.199951
1333.058196	1302.800049
1333.594742	1299.800049
1334.131232	1298.599976
1334.667667	1303.0
1335.204046	1323.199951
1335.740369	1313.400024
1336.276637	1309.199951
1336.812848	1311.800049
1337.349004	1313.199951
1337.885105	1306.400024
1338.421149	1307.800049
1338.957138	1306.199951
1339.493071	1300.199951
1340.028949	1302.800049
1340.56477	1310.199951
1341.100536	1307.199951
1341.636246	1311.800049
1342.171901	1308.199951
1342.7075	1302.400024
1343.243043	1301.599976
1343.77853	1293.599976
1344.313962	1304.400024
1344.849338	1300.400024
1345.384659	1306.0
1345.919923	1300.800049
1346.455133	1301.400024
1346.990286	1303.0
1347.525384	1315.599976
1348.060426	1296.199951
1348.595412	1319.400024
1349.130343	1307.199951
1349.665218	1297.599976
1350.200037	1301.599976
1350.734801	1311.800049
1351.269509	1297.599976
1351.804162	1300.199951
1352.338758	1290.400024
1352.8733	1308.0
1353.407785	1296.599976
1353.942215	1293.800049
1354.476589	1296.199951
1355.010908	1295.800049
1355.545171	1305.0
1356.079379	1296.199951
1356.61353	1296.800049
1357.147627	1299.0
1357.681667	1308.599976
1358.215652	1296.199951
1358.749582	1307.599976
1359.283456	1302.199951
1359.817274	1299.400024
1360.351037	1298.599976
1360.884744	1293.0
1361.418395	1301.599976
1361.951991	1305.599976
1362.485531	1292.599976
1363.019016	1290.400024
1363.552445	1292.0
1364.085819	1309.0
1364.619137	1297.199951
1365.1524	1292.599976
1365.685607	1289.199951
1366.218758	1298.800049
1366.751854	1287.199951
1367.284894	1287.199951
1367.817879	1292.0
1368.350808	1308.0
1368.883682	1285.800049
1369.4165	1294.599976
1369.949263	1296.199951
1370.48197	1317.400024
1371.014622	1290.199951
1371.547218	1292.599976
1372.079758	1291.400024
1372.612244	1292.400024
1373.144673	1293.800049
1373.677047	1287.800049
1374.209366	1293.400024
1374.741629	1279.0
1375.273836	1293.0
1375.805989	1291.0
1376.338085	1297.599976
1376.870126	1288.400024
1377.402112	1288.599976
1377.934042	1295.599976
1378.465917	1281.0
1378.997736	1291.800049
1379.5295	1305.0
1380.061208	1296.199951
1380.592861	1287.400024
1381.124459	1307.0
1381.656	1294.800049
1382.187487	1287.199951
1382.718918	1296.599976
1383.250294	1292.599976
1383.781614	1284.199951
1384.312879	1290.199951
1384.844088	1293.400024
1385.375242	1303.199951
1385.90634	1303.800049
1386.437383	1300.800049
1386.968371	1311.400024
1387.499303	1330.599976
1388.03018	1439.599976
1388.561001	2004.400024
1389.091767	2064.800049
1389.622478	1450.800049
1390.153133	1327.599976
1390.683733	1292.800049
1391.214277	1303.800049
1391.744766	1295.800049
1392.2752	1296.199951
1392.805578	1287.800049
1393.335901	1292.0
1393.866168	1293.199951
1394.396381	1300.599976
1394.926537	1289.400024
1395.456639	1283.400024
1395.986685	1291.599976
1396.516675	1294.0
1397.046611	1292.800049
1397.576491	1287.199951
1398.106315	1284.0
1398.636084	1287.400024
1399.165798	1290.400024
1399.695457	1294.599976
1400.22506	1291.400024
1400.754608	1295.199951
1401.284101	1294.199951
1401.813538	1294.400024
1402.34292	1283.199951
1402.872247	1286.800049
1403.401518	1291.199951
1403.930734	1292.599976
1404.459895	1281.199951
1404.989	1297.0
1405.51805	1302.400024
1406.047045	1288.800049
1406.575984	1293.800049
1407.104869	1276.400024
1407.633697	1288.199951
1408.162471	1292.400024
1408.691189	1292.800049
1409.219852	1313.0
1409.74846	1320.400024
1410.277013	1370.400024
1410.80551	1325.199951
1411.333952	1286.400024
1411.862339	1275.199951
1412.39067	1278.599976
1412.918946	1292.599976
1413.447167	1288.400024
1413.975333	1300.800049
1414.503444	1291.599976
1415.031499	1282.599976
1415.559499	1291.599976
1416.087444	1286.599976
1416.615333	1285.0
1417.143167	1298.199951
1417.670947	1274.199951
1418.19867	1296.199951
1418.726339	1283.199951
1419.253952	1289.0
1419.781511	1294.199951
1420.309014	1289.199951
1420.836461	1278.400024
1421.363854	1277.400024
1421.891191	1286.400024
1422.418474	1291.599976
1422.945701	1284.800049
1423.472872	1293.800049
1423.999989	1299.800049
1424.52705	1287.0
1425.054057	1290.800049
1425.581008	1303.800049
1426.107904	1298.0
1426.634745	1300.199951
1427.16153	1295.0
1427.688261	1292.199951
1428.214936	1269.800049
1428.741556	1277.0
1429.268121	1281.199951
1429.794631	1290.599976
1430.321085	1279.199951
1430.847485	1275.599976
1431.373829	1293.599976
1431.900118	1284.199951
1432.426353	1274.0
1432.952532	1282.800049
1433.478655	1289.0
1434.004724	1290.199951
1434.530738	1280.400024
1435.056696	1279.599976
1435.5826	1281.0
1436.108448	1281.800049
1436.634241	1278.400024
1437.159979	1270.199951
1437.685662	1283.199951
1438.21129	1283.400024
1438.736863	1284.599976
1439.262381	1283.599976
1439.787843	1285.199951
1440.313251	1267.0
1440.838603	1280.800049
1441.3639	1261.800049
1441.889143	1257.0
1442.41433	1288.400024
1442.939462	1270.0
1443.464539	1282.800049
1443.989561	1264.800049
1444.514528	1265.0
1445.03944	1281.0
1445.564297	1264.199951
1446.089099	1270.199951
1446.613846	1271.0
1447.138537	1267.800049
1447.663174	1272.800049
1448.187756	1274.0
1448.712282	1285.599976
1449.236754	1286.199951
1449.761171	1272.199951
1450.285532	1283.400024
1450.809839	1279.0
1451.33409	1270.0
1451.858287	1282.400024
1452.382428	1280.400024
1452.906515	1283.800049
1453.430546	1278.199951
1453.954523	1257.599976
1454.478444	1276.400024
1455.002311	1275.0
1455.526123	1268.0
1456.049879	1267.599976
1456.573581	1268.800049
1457.097227	1273.400024
1457.620819	1282.0
1458.144356	1285.599976
1458.667837	1282.800049
1459.191264	1289.0
1459.714636	1267.400024
1460.237952	1270.599976
1460.761214	1269.199951
1461.284421	1279.400024
1461.807573	1274.599976
1462.33067	1271.199951
1462.853712	1273.800049
1463.376699	1271.800049
1463.899632	1283.0
1464.422509	1269.0
1464.945331	1269.400024
1465.468099	1271.800049
1465.990811	1279.0
1466.513469	1280.800049
1467.036071	1272.599976
1467.558619	1273.0
1468.081112	1251.199951
1468.60355	1265.599976
1469.125933	1264.800049
1469.648261	1264.800049
1470.170534	1264.199951
1470.692752	1279.800049
1471.214916	1280.199951
1471.737024	1266.800049
1472.259078	1260.400024
1472.781077	1262.800049
1473.303021	1276.599976
1473.82491	1260.599976
1474.346744	1262.599976
1474.868523	1275.0
1475.390248	1273.0
1475.911917	1266.800049
1476.433532	1258.199951
1476.955092	1260.599976
1477.476597	1259.400024
1477.998047	1267.400024
1478.519442	1253.400024
1479.040783	1260.400024
1479.562068	1277.199951
1480.083299	1258.199951
1480.604475	1266.599976
1481.125596	1264.599976
1481.646663	1261.0
1482.167674	1270.599976
1482.688631	1260.400024
1483.209533	1257.599976
1483.73038	1257.599976
1484.251172	1261.0
1484.771909	1258.400024
1485.292592	1268.0
1485.81322	1263.800049
1486.333793	1261.599976
1486.854311	1254.400024
1487.374775	1249.199951
1487.895183	1262.800049
1488.415537	1268.199951
1488.935836	1252.599976
1489.456081	1258.0
1489.97627	1265.400024
1490.496405	1258.599976
1491.016485	1254.800049
1491.536511	1261.400024
1492.056481	1269.800049
1493.096258	1269.800049
1493.616064	1249.199951
1494.135816	1248.400024
1494.655513	1255.199951
1495.175155	1252.599976
1495.694742	1258.400024
1496.214274	1254.199951
1496.733752	1251.800049
1497.253175	1265.199951
1497.772544	1247.199951
1498.291858	1271.199951
1498.811116	1261.0
1499.330321	1263.400024
1499.84947	1262.400024
1500.368565	1246.199951
1500.887605	1252.400024
1501.406591	1247.199951
1501.925521	1242.199951
1502.444397	1257.599976
1502.963219	1247.599976
1503.481985	1257.400024
1504.000697	1262.599976
1504.519355	1267.800049
1505.037957	1251.800049
1505.556505	1266.0
1506.074999	1252.599976
1506.593437	1264.800049
1507.111821	1242.599976
1507.63015	1257.199951
1508.148425	1255.599976
1508.666645	1251.800049
1509.18481	1251.400024
1509.702921	1243.599976
1510.220977	1256.199951
1510.738979	1254.400024
1511.256925	1247.400024
1511.774817	1257.800049
1512.292655	1252.199951
1512.810438	1246.0
1513.328166	1254.400024
1513.84584	1248.0
1514.363459	1248.599976
1514.881023	1246.599976
1515.398533	1265.599976
1515.915988	1263.800049
1516.433389	1251.800049
1516.950734	1258.800049
1517.468026	1248.800049
1517.985263	1253.0
1518.502445	1257.400024
1519.019572	1239.599976
1519.536645	1251.0
1520.053664	1250.599976
1520.570628	1248.199951
1521.087537	1256.0
1521.604392	1238.0
1522.121192	1240.199951
1522.637937	1242.199951
1523.154628	1243.800049
1523.671265	1263.599976
1524.187847	1240.400024
1524.704374	1250.400024
1525.220847	1242.800049
1525.737265	1256.400024
1526.253629	1253.199951
1526.769938	1246.0
1527.286192	1252.599976
1527.802392	1255.199951
1528.318538	1241.0
1528.834629	1247.0
1529.350666	1258.800049
1529.866648	1257.800049
1530.382575	1254.800049
1530.898448	1246.199951
1531.414266	1255.400024
1531.93003	1252.0
1532.44574	1249.400024
1532.961395	1234.199951
1533.476995	1243.800049
1533.992541	1238.0
1534.508033	1242.400024
1535.02347	1246.599976
1535.538852	1252.0
1536.05418	1248.400024
1536.569454	1239.599976
1537.084673	1255.199951
1537.599837	1243.400024
1538.114947	1249.400024
1538.630003	1243.400024
1539.145004	1244.199951
1539.659951	1254.800049
1540.174843	1248.599976
1540.689681	1252.599976
1541.204465	1234.0
1541.719194	1256.599976
1542.233868	1252.800049
1542.748488	1235.199951
1543.263054	1244.0
1543.777565	1261.800049
1544.292022	1245.0
1544.806424	1250.199951
1545.320772	1249.199951
1545.835066	1264.199951
1546.349305	1263.800049
1546.863489	1251.0
1547.37762	1262.400024
1547.891696	1274.599976
1548.405717	1248.199951
1548.919684	1237.199951
1549.433597	1266.0
1549.947455	1247.199951
1550.461259	1261.400024
1550.975009	1262.0
1551.488704	1244.800049
1552.002345	1252.0
1552.515931	1237.199951
1553.029463	1264.400024
1553.542941	1241.599976
1554.056364	1254.400024
1554.569733	1246.800049
1555.083048	1247.599976
1555.596308	1260.400024
1556.109514	1244.400024
1556.622665	1254.599976
1557.135762	1243.0
1557.648805	1247.800049
1558.161794	1251.800049
1558.674728	1252.800049
1559.187608	1247.800049
1559.700433	1240.400024
1560.213205	1242.599976
1560.725921	1256.199951
1561.238584	1259.0
1561.751192	1249.0
1562.263746	1251.599976
1562.776246	1255.0
1563.288691	1257.400024
1563.801082	1243.400024
1564.313419	1258.599976
1564.825701	1240.599976
1565.337929	1244.599976
1565.850103	1244.800049
1566.362223	1251.199951
1566.874288	1240.400024
1567.386299	1259.800049
1567.898256	1256.599976
1568.410158	1249.800049
1568.922007	1252.0
1569.4338	1237.800049
1569.94554	1247.400024
1570.457226	1243.599976
1570.968857	1247.599976
1571.480434	1253.0
1571.991956	1261.199951
1572.503425	1247.400024
1573.014839	1242.599976
1573.526199	1259.400024
1574.037505	1247.800049
1574.548756	1251.400024
1575.059953	1242.800049
1575.571096	1246.800049
1576.082185	1252.0
1576.59322	1249.0
1577.1042	1254.0
1577.615126	1255.199951
1578.125998	1243.800049
1578.636816	1249.0
1579.14758	1254.0
1579.658289	1235.599976
1580.168944	1252.800049
1580.679545	1231.199951
1581.190092	1260.199951
1581.700585	1239.599976
1582.211023	1240.599976
1582.721407	1253.800049
1583.231737	1245.199951
1583.742013	1229.199951
1584.252235	1247.0
1584.762403	1242.0
1585.272516	1245.800049
1585.782575	1245.199951
1586.292581	1230.800049
1586.802532	1243.599976
1587.312428	1230.599976
1587.822271	1244.599976
1588.33206	1240.800049
1588.841794	1249.0
1589.351474	1247.599976
1589.8611	1238.400024
1590.370672	1256.599976
1590.88019	1240.0
1591.389654	1259.199951
1591.899064	1250.400024
