1043.018714	2052.399902
1043.585098	2066.399902
1044.151424	2069.600098
1044.717692	2073.0
1045.283903	2065.0
1045.850056	2057.199951
1046.416151	2049.800049
1046.982188	2048.600098
1047.548167	2053.800049
1048.114089	2057.0
1048.679953	2072.800049
1049.24576	2040.800049
1049.811509	2048.0
1050.3772	2046.199951
1050.942833	2064.199951
1051.508408	2053.800049
1052.073926	2042.599976
1052.639387	2034.0
1053.204789	2048.199951
1053.770134	2060.600098
1054.335421	2034.0
1054.900651	2022.0
1055.465823	2020.800049
1056.030937	2042.0
1056.595993	2015.199951
1057.160992	2052.600098
1057.725934	2036.800049
1058.290817	2045.400024
1059.420411	2053.800049
1059.985122	2042.400024
1060.549775	2050.600098
1061.114371	2022.800049
1061.678908	2053.199951
1062.243389	2020.800049
1062.807811	2034.400024
1063.372176	2017.599976
1063.936483	2050.399902
1064.500733	2030.800049
1065.064925	2044.199951
1065.62906	2015.199951
1066.193137	2035.400024
1066.757156	2030.800049
1067.321118	2033.0
1067.885022	2009.800049
1068.448869	2034.199951
1069.012658	2017.0
1069.57639	2023.0
1070.140063	2032.199951
1070.70368	2018.199951
1071.267239	2009.599976
1071.83074	2027.800049
1072.394184	2011.400024
1072.95757	2020.599976
1073.520899	2017.0
1074.08417	2041.599976
1074.647383	2023.199951
1075.21054	2006.400024
1075.773638	1999.0
1076.336679	2002.199951
1076.899663	2021.599976
1077.462589	2031.0
1078.025457	2009.0
1078.588268	2012.800049
1079.151022	2000.800049
1079.713718	2013.800049
1080.276356	1997.0
1080.838937	2007.0
1081.401461	2002.599976
1081.963927	2016.199951
1082.526336	2011.0
1083.088687	2010.0
1083.650981	1993.199951
1084.213217	2004.199951
1084.775396	1988.400024
1085.337517	1990.800049
1085.899581	1997.800049
1086.461587	1983.199951
1087.023536	1988.199951
1087.585428	1996.0
1088.147262	1985.599976
1088.709039	1987.800049
1089.270758	2000.599976
1089.83242	1999.0
1090.394024	1979.400024
1090.955571	1978.599976
1091.517061	1977.800049
1092.078493	1990.199951
1092.639868	1970.0
1093.201185	1988.0
1093.762445	1981.800049
1094.323648	1974.0
1094.884793	1965.800049
1095.445881	1979.0
1096.006911	1965.199951
1096.567884	1968.199951
1097.1288	1967.599976
1097.689659	1979.800049
1098.25046	1974.0
1098.811203	1970.199951
1099.37189	1970.199951
1099.932518	1967.400024
1100.49309	1965.400024
1101.053604	1977.400024
1101.614061	1950.199951
1102.174461	1969.400024
1102.734803	1953.400024
1103.295088	1969.199951
1103.855316	1952.599976
1104.415486	1952.400024
1104.975599	1943.599976
1105.535655	1954.400024
1106.095653	1955.400024
1106.655594	1955.599976
1107.215478	1945.199951
1107.775305	1964.800049
1108.335074	1937.800049
1108.894786	1963.199951
1109.45444	1938.199951
1110.014038	1943.199951
1110.573578	1948.800049
1111.133061	1940.199951
1111.692486	1950.400024
1112.251854	1941.400024
1112.811165	1918.599976
1113.370419	1943.800049
1113.929616	1941.400024
1114.488755	1947.800049
1115.047837	1917.0
1115.606862	1933.400024
1116.16583	1942.199951
1116.72474	1930.0
1117.283593	1949.599976
1117.842389	1923.0
1118.401128	1923.400024
1118.959809	1942.199951
1119.518433	1930.0
1120.077	1915.800049
1120.63551	1936.800049
1121.193963	1914.599976
1121.752358	1943.800049
1122.310697	1939.400024
1122.868978	1931.800049
1123.427202	1949.400024
1123.985368	1933.800049
1124.543478	1925.199951
1125.10153	1926.199951
1125.659526	1933.599976
1126.217464	1921.800049
1126.775345	1924.199951
1127.333168	1917.800049
1127.890935	1935.400024
1128.448644	1931.400024
1129.006297	1918.800049
1129.563892	1936.0
1130.12143	1914.599976
1130.678911	1926.599976
1131.236335	1917.599976
1131.793701	1923.199951
1132.351011	1945.0
1132.908263	1926.0
1133.465458	1940.400024
1134.022597	1900.400024
1134.579678	1922.199951
1135.136702	1912.599976
1135.693669	1939.400024
1136.250578	1920.599976
1136.807431	1898.800049
1137.364227	1931.599976
1137.920965	1953.599976
1138.477647	1913.599976
1139.034271	1937.199951
1139.590839	1914.199951
1140.147349	1918.199951
1140.703802	1917.800049
1141.260198	1925.0
1141.816537	1902.400024
1142.37282	1922.599976
1142.929045	1929.800049
1143.485213	1921.400024
1144.041323	1915.599976
1144.597377	1915.599976
1145.153374	1941.0
1145.709314	1931.0
1146.265197	1926.400024
1146.821023	1919.199951
1147.376792	1904.400024
1147.932503	1946.400024
1148.488158	1928.599976
1149.043756	1916.199951
1149.599297	1914.400024
1150.154781	1934.800049
1150.710207	1942.400024
1151.265577	1918.800049
1151.82089	1943.599976
1152.376146	1924.400024
1152.931345	1943.199951
1153.486487	1909.400024
1154.041572	1913.400024
1154.5966	1925.199951
1155.151571	1947.599976
1155.706485	1927.199951
1156.261342	1935.800049
1156.816142	1935.400024
1157.370885	1926.400024
1157.925572	1934.599976
1158.480201	1912.0
1159.034774	1929.800049
1159.589289	1937.400024
1160.143748	1921.400024
1160.698149	1922.800049
1161.252494	1923.400024
1161.806782	1924.0
1162.361013	1924.0
1162.915187	1910.800049
1163.469304	1920.199951
1164.023364	1910.400024
1164.577368	1911.400024
1165.131314	1918.599976
1165.685204	1893.800049
1166.239036	1907.199951
1166.792812	1920.199951
1167.346531	1922.0
1167.900193	1917.400024
1168.453798	1924.400024
1169.007347	1910.599976
1169.560838	1918.800049
1170.114273	1926.400024
1170.66765	1896.599976
1171.220971	1916.199951
1171.774235	1917.599976
1172.327443	1917.0
1172.880593	1922.800049
1173.433687	1899.400024
1173.986723	1893.400024
1174.539703	1905.800049
1175.092626	1920.0
1175.645493	1910.0
1176.198302	1904.800049
1176.751055	1877.400024
1177.303751	1928.800049
1177.85639	1909.599976
1178.408972	1910.800049
1178.961498	1917.800049
1179.513966	1900.0
1180.066378	1881.800049
1180.618733	1909.400024
1181.171032	1894.599976
1181.723273	1908.400024
1182.275458	1912.400024
1182.827586	1891.199951
1183.379657	1903.0
1183.931672	1892.199951
1184.48363	1886.0
1185.035531	1906.0
1185.587375	1900.400024
1186.139162	1901.199951
1186.690893	1894.199951
1187.242567	1879.400024
1187.794184	1894.599976
1188.345745	1903.800049
1188.897249	1896.199951
1189.448696	1898.400024
1190.000086	1901.0
1190.55142	1899.599976
1191.102697	1897.0
1191.653918	1885.599976
1192.205081	1882.800049
1192.756188	1902.199951
1193.307238	1905.400024
1193.858232	1899.599976
1194.409169	1892.800049
1194.960049	1880.199951
1195.510872	1890.400024
1196.061639	1898.800049
1196.612349	1892.599976
1197.163003	1881.400024
1197.713599	1875.599976
1198.264139	1895.199951
1198.814623	1881.0
1199.36505	1896.800049
1199.91542	1902.400024
1200.465734	1898.199951
1201.01599	1883.800049
1201.566191	1881.199951
1202.116334	1893.400024
1202.666421	1878.800049
1203.216452	1891.599976
1203.766425	1888.400024
1204.316343	1879.0
1204.866203	1894.800049
1205.416007	1881.599976
1205.965754	1865.400024
1206.515445	1884.800049
1207.065079	1893.0
1207.614657	1892.400024
1208.164177	1871.800049
1208.713642	1876.199951
1209.26305	1877.400024
1209.812401	1895.199951
1210.361695	1878.199951
1210.910933	1883.0
1211.460115	1872.800049
1212.00924	1876.400024
1212.558308	1878.400024
1213.10732	1904.0
1213.656275	1856.199951
1214.205174	1873.800049
1214.754016	1866.400024
1215.302801	1874.800049
1215.85153	1873.800049
1216.400203	1883.400024
1216.948819	1851.599976
1217.497378	1864.800049
1218.045881	1875.599976
1218.594327	1864.199951
1219.142717	1864.599976
1219.691051	1881.0
1220.239327	1862.0
1220.787548	1862.199951
1221.335712	1867.0
1221.883819	1873.0
1222.43187	1867.800049
1222.979864	1865.0
1223.527802	1867.800049
1224.075683	1884.199951
1224.623508	1855.800049
1225.171277	1865.800049
1225.718989	1861.800049
1226.266644	1863.199951
1226.814243	1870.599976
1227.361786	1861.400024
1227.909272	1844.599976
1228.456702	1871.599976
1229.004075	1860.800049
1229.551392	1857.800049
1230.098652	1868.0
1230.645856	1857.0
1231.193003	1861.599976
1231.740094	1850.400024
1232.287129	1852.199951
1232.834107	1851.199951
1233.381029	1871.800049
1233.927894	1853.400024
1234.474703	1865.0
1235.021455	1858.199951
1235.568151	1858.800049
1236.114791	1844.400024
1236.661374	1859.599976
1237.207901	1849.599976
1237.754372	1845.599976
1238.300786	1852.800049
1238.847144	1852.800049
1239.393445	1858.0
1239.93969	1864.199951
1240.485879	1864.400024
1241.032011	1861.400024
1241.578087	1847.400024
1242.124106	1836.400024
1242.67007	1844.800049
1243.215976	1843.400024
1243.761827	1851.0
1244.307621	1834.400024
1244.853359	1851.400024
1245.39904	1854.599976
1245.944665	1852.0
1246.490234	1854.199951
1247.035746	1858.0
1247.581203	1827.800049
1248.126602	1853.599976
1248.671946	1837.800049
1249.217233	1851.800049
1249.762464	1841.199951
1250.307638	1830.199951
1250.852757	1835.400024
1251.397819	1842.599976
1251.942824	1846.0
1252.487774	1833.599976
1253.032667	1833.800049
1253.577503	1833.599976
1254.122284	1844.599976
1254.667008	1825.400024
1255.211676	1822.199951
1255.756288	1857.800049
1256.300843	1835.0
1256.845342	1836.199951
1257.389785	1820.0
1257.934172	1842.800049
1258.478502	1832.400024
1259.022776	1847.0
1259.566994	1839.199951
1260.111156	1847.0
1260.655261	1835.800049
1261.199311	1840.800049
1261.743304	1840.199951
1262.28724	1839.800049
1262.831121	1833.800049
1263.374945	1832.199951
1263.918713	1832.800049
1264.462425	1846.199951
1265.006081	1851.0
1265.54968	1849.199951
1266.093223	1816.0
1266.636711	1831.599976
1267.180141	1828.400024
1267.723516	1836.400024
1268.266835	1839.0
1268.810097	1828.400024
1269.353303	1839.0
1269.896453	1834.800049
1270.439547	1821.400024
1270.982584	1818.800049
1271.525566	1841.0
1272.068491	1828.800049
1272.61136	1823.599976
1273.154173	1831.0
1273.69693	1839.599976
1274.239631	1836.599976
1274.782275	1823.199951
1275.324864	1820.800049
1275.867396	1835.400024
1276.409872	1816.800049
1276.952292	1817.199951
1277.494656	1836.400024
1278.036964	1801.0
1278.579215	1833.0
1279.121411	1826.0
1279.66355	1829.0
1280.205634	1810.599976
1280.747661	1829.599976
1281.289632	1804.0
1281.831547	1820.0
1282.373406	1812.800049
1282.915209	1824.0
1283.456955	1814.0
1283.998646	1828.599976
1284.540281	1828.0
1285.081859	1852.800049
1285.623381	1981.400024
1286.164848	1946.599976
1286.706258	1828.800049
1287.247612	1824.400024
1287.788911	1801.800049
1288.330153	1811.199951
1288.871339	1804.0
1289.412469	1835.0
1290.494561	1828.199951
1291.035523	1818.800049
1291.576428	1815.800049
1292.117278	1806.800049
1292.658072	1800.199951
1293.19881	1793.400024
1293.739492	1815.199951
1294.280118	1807.199951
1294.820687	1805.199951
1295.361201	1822.599976
1295.901659	1815.199951
1296.442061	1810.400024
1296.982406	1800.199951
1297.522696	1818.0
1298.06293	1788.0
1298.603108	1810.199951
1299.143229	1792.800049
1299.683295	1822.400024
1300.223305	1789.199951
1300.763259	1807.599976
1301.303157	1791.599976
1301.842999	1806.0
1302.382785	1799.0
1302.922515	1788.199951
1303.462189	1813.400024
1304.001807	1802.199951
1304.541369	1810.0
1305.080875	1807.0
1305.620326	1795.599976
1306.15972	1795.800049
1306.699058	1825.400024
1307.238341	1787.400024
1307.777567	1791.199951
1308.316738	1787.400024
1308.855853	1802.599976
1309.394912	1777.599976
1309.933915	1797.400024
1310.472862	1796.199951
1311.011753	1805.599976
1311.550588	1791.0
1312.089367	1805.599976
1312.62809	1787.199951
1313.166758	1807.0
1313.70537	1779.400024
1314.243925	1786.599976
1314.782425	1789.199951
1315.320869	1795.199951
1315.859257	1797.0
1316.397589	1807.199951
1316.935866	1786.199951
1317.474086	1794.599976
1318.012251	1798.599976
1318.55036	1793.800049
1319.088413	1785.199951
1319.62641	1771.400024
1320.164351	1796.400024
1320.702236	1790.199951
1321.240066	1789.800049
1321.777839	1785.199951
1322.315557	1804.199951
1322.853219	1777.0
1323.390826	1787.199951
1323.928376	1793.400024
1324.465871	1792.199951
1325.003309	1773.800049
1325.540692	1779.0
1326.07802	1781.199951
1326.615291	1792.0
1327.152506	1784.800049
1327.689666	1776.599976
1328.22677	1799.800049
1328.763818	1782.400024
1329.300811	1780.199951
1329.837747	1782.400024
1330.374628	1782.800049
1330.911453	1767.199951
1331.448222	1768.400024
1331.984936	1786.800049
1332.521594	1794.599976
1333.058196	1774.199951
1333.594742	1797.199951
1334.131232	1765.0
1334.667667	1773.400024
1335.204046	1744.400024
1335.740369	1790.599976
1336.276637	1765.0
1336.812848	1779.0
1337.349004	1776.400024
1337.885105	1790.599976
1338.421149	1777.0
1338.957138	1762.199951
1339.493071	1768.199951
1340.028949	1770.0
1340.56477	1772.199951
1341.100536	1760.199951
1341.636246	1774.800049
1342.171901	1761.599976
1342.7075	1764.599976
1343.243043	1771.800049
1343.77853	1785.199951
1344.313962	1768.0
1344.849338	1773.599976
1345.384659	1754.199951
1345.919923	1768.800049
1346.455133	1766.400024
1346.990286	1758.599976
1347.525384	1770.0
1348.060426	1776.400024
1348.595412	1765.800049
1349.130343	1768.599976
1349.665218	1772.400024
1350.200037	1767.199951
1350.734801	1791.0
1351.269509	1751.800049
1351.804162	1759.199951
1352.338758	1778.800049
1352.8733	1751.800049
1353.407785	1761.0
1353.942215	1755.400024
1354.476589	1770.599976
1355.010908	1758.0
1355.545171	1752.0
1356.079379	1759.599976
1356.61353	1743.0
1357.147627	1758.599976
1357.681667	1753.800049
1358.215652	1763.199951
1358.749582	1748.0
1359.283456	1764.800049
1359.817274	1743.400024
1360.351037	1748.800049
1360.884744	1762.800049
1361.418395	1732.0
1361.951991	1756.0
1362.485531	1749.800049
1363.019016	1761.199951
1363.552445	1752.400024
1364.085819	1750.599976
1364.619137	1734.400024
1365.1524	1755.0
1365.685607	1752.199951
1366.218758	1761.199951
1366.751854	1736.800049
1367.284894	1746.400024
1367.817879	1743.199951
1368.350808	1735.0
1368.883682	1735.0
1369.4165	1760.400024
1369.949263	1746.199951
1370.48197	1757.599976
1371.014622	1758.199951
1371.547218	1752.800049
1372.079758	1739.0
1372.612244	1740.800049
1373.144673	1747.199951
1373.677047	1729.800049
1374.209366	1737.199951
1374.741629	1750.199951
1375.273836	1757.800049
1375.805989	1726.800049
1376.338085	1754.0
1376.870126	1749.800049
1377.402112	1758.199951
1377.934042	1728.0
1378.465917	1747.199951
1378.997736	1739.599976
1379.5295	1744.0
1380.061208	1739.800049
1380.592861	1743.0
1381.124459	1737.800049
1381.656	1742.800049
1382.187487	1745.400024
1382.718918	1730.400024
1383.250294	1746.199951
1383.781614	1746.400024
1384.312879	1737.199951
1384.844088	1726.400024
1385.375242	1745.800049
1385.90634	1733.199951
1386.437383	1742.199951
1386.968371	1748.0
1387.499303	1756.400024
1388.03018	1761.400024
1388.561001	1907.400024
1389.091767	1994.0
1389.622478	1795.400024
1390.153133	1745.599976
1390.683733	1735.599976
1391.214277	1739.800049
1391.744766	1742.0
1392.2752	1721.800049
1392.805578	1726.400024
1393.335901	1731.599976
1393.866168	1725.400024
1394.396381	1713.400024
1394.926537	1733.800049
1395.456639	1727.800049
1395.986685	1730.400024
1396.516675	1741.800049
1397.046611	1737.599976
1397.576491	1729.0
1398.106315	1733.400024
1398.636084	1751.199951
1399.165798	1716.400024
1399.695457	1739.400024
1400.22506	1718.800049
1400.754608	1746.599976
1401.284101	1746.0
1401.813538	1727.599976
1402.34292	1733.199951
1402.872247	1736.199951
1403.401518	1743.199951
1403.930734	1737.0
1404.459895	1735.800049
1404.989	1728.400024
1405.51805	1734.599976
1406.047045	1727.0
1406.575984	1726.800049
1407.104869	1731.0
1407.633697	1718.400024
1408.162471	1736.400024
1408.691189	1714.800049
1409.219852	1706.599976
1409.74846	1742.0
1410.277013	1758.599976
1410.80551	1751.199951
1411.333952	1745.0
1411.862339	1747.199951
1412.39067	1747.400024
1412.918946	1734.400024
1413.447167	1735.400024
1413.975333	1706.400024
1414.503444	1720.599976
1415.031499	1725.400024
1415.559499	1731.0
1416.087444	1736.400024
1416.615333	1724.599976
1417.143167	1719.0
1417.670947	1728.0
1418.19867	1730.400024
1418.726339	1716.0
1419.253952	1723.199951
1419.781511	1713.199951
1420.309014	1739.599976
1420.836461	1709.400024
1421.363854	1728.199951
1421.891191	1726.800049
1422.418474	1718.199951
1422.945701	1718.0
1423.472872	1726.400024
1423.999989	1730.400024
1424.52705	1726.400024
1425.054057	1730.0
1425.581008	1712.0
1426.107904	1732.0
1426.634745	1726.0
1427.16153	1733.800049
1427.688261	1721.199951
1428.214936	1707.199951
1428.741556	1711.599976
1429.268121	1703.599976
1429.794631	1731.599976
1430.321085	1724.800049
1430.847485	1736.400024
1431.373829	1717.0
1431.900118	1731.199951
1432.426353	1714.0
1432.952532	1707.400024
1433.478655	1713.0
1434.004724	1720.800049
1434.530738	1712.400024
1435.056696	1725.199951
1435.5826	1727.599976
1436.108448	1734.800049
1436.634241	1704.0
1437.159979	1721.599976
1437.685662	1721.400024
1438.21129	1703.800049
1438.736863	1705.599976
1439.262381	1717.800049
1439.787843	1723.0
1440.313251	1727.199951
1440.838603	1704.800049
1441.3639	1719.199951
1441.889143	1713.800049
1442.41433	1713.199951
1442.939462	1706.599976
1443.464539	1733.0
1443.989561	1708.800049
1444.514528	1721.800049
1445.03944	1714.800049
1445.564297	1705.400024
1446.089099	1714.400024
1446.613846	1706.599976
1447.138537	1707.199951
1447.663174	1709.400024
1448.187756	1704.800049
1448.712282	1703.0
1449.236754	1705.199951
1449.761171	1717.0
1450.285532	1721.400024
1450.809839	1712.599976
1451.33409	1676.599976
1451.858287	1683.400024
1452.382428	1710.199951
1452.906515	1696.800049
1453.430546	1707.199951
1453.954523	1709.199951
1454.478444	1720.199951
1455.002311	1709.400024
1455.526123	1709.400024
1456.049879	1714.400024
1456.573581	1700.800049
1457.097227	1706.800049
1457.620819	1699.800049
1458.144356	1700.0
1458.667837	1701.800049
1459.191264	1685.599976
1459.714636	1701.400024
1460.237952	1696.0
1460.761214	1700.199951
1461.284421	1692.599976
1461.807573	1713.599976
1462.33067	1704.800049
1462.853712	1701.199951
1463.376699	1696.800049
1463.899632	1706.599976
1464.422509	1708.199951
1464.945331	1687.199951
1465.468099	1686.0
1465.990811	1701.199951
1466.513469	1686.0
1467.036071	1689.199951
1467.558619	1712.400024
1468.081112	1694.0
1468.60355	1684.0
1469.125933	1673.400024
1469.648261	1684.400024
1470.170534	1699.400024
1470.692752	1695.400024
1471.214916	1677.400024
1471.737024	1689.0
1472.259078	1685.800049
1472.781077	1692.599976
1473.303021	1674.0
1473.82491	1687.400024
1474.346744	1703.0
1474.868523	1696.400024
1475.390248	1705.199951
1475.911917	1685.0
1476.433532	1685.800049
1476.955092	1684.400024
1477.476597	1679.800049
1477.998047	1686.400024
1478.519442	1684.199951
1479.040783	1705.800049
1479.562068	1688.599976
1480.083299	1693.599976
1480.604475	1691.400024
1481.125596	1671.599976
1481.646663	1688.400024
1482.167674	1672.0
1482.688631	1682.599976
1483.209533	1683.199951
1483.73038	1684.800049
1484.251172	1688.0
1484.771909	1680.199951
1485.292592	1654.0
1485.81322	1678.199951
1486.333793	1671.400024
1486.854311	1696.0
1487.374775	1691.800049
1487.895183	1657.0
1488.415537	1677.199951
1488.935836	1671.400024
1489.456081	1693.0
1489.97627	1666.0
1490.496405	1686.0
1491.016485	1666.400024
1491.536511	1687.599976
1492.056481	1675.800049
1492.576397	1692.0
1493.096258	1686.199951
1493.616064	1675.400024
1494.135816	1687.0
1494.655513	1693.0
1495.175155	1687.599976
1495.694742	1667.599976
1496.214274	1671.0
1496.733752	1679.400024
1497.253175	1667.0
1497.772544	1678.400024
1498.291858	1685.199951
1498.811116	1671.0
1499.330321	1666.0
1499.84947	1684.400024
1500.368565	1663.800049
1500.887605	1665.0
1501.406591	1677.400024
1501.925521	1670.800049
1502.444397	1678.800049
1502.963219	1671.400024
1503.481985	1675.199951
1504.000697	1680.599976
1504.519355	1667.599976
1505.037957	1687.599976
1505.556505	1675.0
1506.074999	1657.199951
1506.593437	1662.400024
1507.111821	1657.800049
1507.63015	1674.199951
1508.148425	1656.199951
1508.666645	1668.400024
1509.18481	1663.0
1509.702921	1667.0
1510.220977	1675.199951
1510.738979	1667.0
1511.256925	1663.199951
1511.774817	1675.800049
1512.292655	1666.800049
1512.810438	1649.800049
1513.328166	1660.599976
1513.84584	1659.400024
1514.363459	1667.400024
1514.881023	1670.400024
1515.398533	1673.400024
1515.915988	1676.400024
1516.433389	1659.199951
1516.950734	1663.800049
1517.468026	1659.400024
1517.985263	1646.0
1518.502445	1662.800049
1519.019572	1664.199951
1519.536645	1654.199951
1520.053664	1662.199951
1520.570628	1657.599976
1521.087537	1667.400024
1521.604392	1670.199951
1522.121192	1656.800049
1522.637937	1668.199951
1523.154628	1657.800049
1523.671265	1664.800049
1524.187847	1662.400024
1524.704374	1666.199951
1525.220847	1666.199951
1525.737265	1659.400024
1526.253629	1663.400024
1526.769938	1668.0
1527.286192	1659.599976
1527.802392	1672.0
1528.318538	1646.400024
1528.834629	1661.599976
1529.350666	1646.199951
1529.866648	1651.400024
1530.382575	1666.800049
1530.898448	1657.800049
1531.414266	1665.0
1531.93003	1652.599976
1532.44574	1665.800049
1532.961395	1662.400024
1533.476995	1660.199951
1533.992541	1664.800049
1534.508033	1667.800049
1535.02347	1658.199951
1535.538852	1650.800049
1536.05418	1660.599976
1536.569454	1646.400024
1537.084673	1667.800049
1537.599837	1667.400024
1538.114947	1660.400024
1538.630003	1670.400024
1539.145004	1647.0
1539.659951	1674.400024
1540.174843	1652.199951
1540.689681	1666.0
1541.204465	1659.599976
1541.719194	1667.0
1542.233868	1648.599976
1542.748488	1660.599976
1543.263054	1643.599976
1543.777565	1653.599976
1544.292022	1655.0
1544.806424	1654.800049
1545.320772	1658.400024
1545.835066	1657.599976
1546.349305	1663.199951
1546.863489	1659.800049
1547.37762	1671.800049
1547.891696	1657.199951
1548.405717	1662.199951
1548.919684	1652.199951
1549.433597	1637.0
1549.947455	1669.800049
1550.461259	1660.199951
1550.975009	1662.400024
1551.488704	1657.0
1552.002345	1661.400024
1552.515931	1659.400024
1553.029463	1672.0
1553.542941	1660.199951
1554.056364	1654.599976
1554.569733	1662.199951
1555.083048	1661.0
1555.596308	1640.199951
1556.109514	1662.599976
1556.622665	1650.199951
1557.135762	1646.800049
1557.648805	1659.400024
1558.161794	1661.0
1558.674728	1651.800049
1559.187608	1657.0
1559.700433	1659.0
1560.213205	1647.199951
1560.725921	1682.599976
1561.238584	1646.599976
1561.751192	1655.0
1562.263746	1655.599976
1562.776246	1660.800049
1563.288691	1656.800049
1563.801082	1642.199951
1564.313419	1662.199951
1564.825701	1656.599976
1565.337929	1655.800049
1565.850103	1658.400024
1566.362223	1656.199951
1566.874288	1655.599976
1567.386299	1640.199951
1567.898256	1669.199951
1568.410158	1655.199951
1568.922007	1664.800049
1569.4338	1640.199951
1569.94554	1661.599976
1570.457226	1654.400024
1570.968857	1660.0
1571.480434	1661.599976
1571.991956	1650.800049
1572.503425	1653.599976
1573.014839	1654.400024
1573.526199	1645.400024
1574.037505	1641.0
1574.548756	1674.199951
1575.059953	1642.0
1575.571096	1655.199951
1576.082185	1650.199951
1576.59322	1671.0
1577.1042	1660.800049
1577.615126	1668.400024
1578.125998	1646.800049
1578.636816	1647.199951
1579.14758	1640.599976
1579.658289	1635.400024
1580.168944	1649.0
1580.679545	1637.800049
1581.190092	1656.0
1581.700585	1626.400024
1582.211023	1650.800049
1582.721407	1640.800049
1583.231737	1646.199951
1583.742013	1646.400024
1584.252235	1650.800049
1584.762403	1650.400024
1585.272516	1657.0
1585.782575	1650.199951
1586.292581	1646.0
1586.802532	1671.599976
1587.312428	1640.599976
1587.822271	1653.400024
1588.33206	1640.199951
1588.841794	1662.199951
1589.351474	1648.599976
1589.8611	1618.199951
1590.88019	1623.599976
1591.389654	1643.800049
1591.899064	1640.0
1592.408419	1651.800049
