1042.452273	730.7999878
1043.018714	735.7999878
1043.585098	730.0
1044.151424	735.2000122
1044.717692	729.4000244
1045.283903	732.5999756
1045.850056	726.4000244
1046.416151	724.0
1046.982188	729.4000244
1047.548167	724.4000244
1048.114089	725.5999756
1048.679953	727.7999878
1049.24576	726.7999878
1049.811509	726.2000122
1050.3772	732.2000122
1050.942833	725.7999878
1051.508408	726.2000122
1052.073926	724.2000122
1052.639387	726.2000122
1053.204789	726.4000244
1053.770134	727.4000244
1054.335421	724.2000122
1054.900651	724.2000122
1055.465823	722.0
1056.030937	726.2000122
1056.595993	720.2000122
1057.160992	719.4000244
1057.725934	724.2000122
1058.290817	724.2000122
1058.855643	731.5999756
1059.420411	730.7999878
1059.985122	724.5999756
1060.549775	722.7999878
1061.114371	718.7999878
1061.678908	725.2000122
1062.243389	721.7999878
1062.807811	722.2000122
1063.372176	727.0
1063.936483	724.0
1064.500733	721.2000122
1065.064925	723.0
1065.62906	721.0
1066.193137	718.7999878
1066.757156	718.0
1067.321118	721.5999756
1067.885022	721.5999756
1068.448869	723.7999878
1069.012658	725.2000122
1069.57639	721.5999756
1070.140063	723.7999878
1070.70368	721.5999756
1071.267239	717.0
1071.83074	718.7999878
1072.394184	723.4000244
1072.95757	721.4000244
1073.520899	720.5999756
1074.08417	723.7999878
1074.647383	718.7999878
1075.21054	716.4000244
1075.773638	721.5999756
1076.336679	719.5999756
1076.899663	718.4000244
1077.462589	718.5999756
1078.025457	720.0
1078.588268	716.4000244
1079.151022	716.0
1079.713718	718.5999756
1080.276356	718.2000122
1080.838937	721.5999756
1081.401461	716.0
1081.963927	716.2000122
1082.526336	719.7999878
1083.088687	721.0
1083.650981	716.4000244
1084.213217	719.4000244
1084.775396	717.4000244
1085.337517	723.4000244
1085.899581	714.7999878
1086.461587	716.0
1087.023536	719.2000122
1087.585428	717.4000244
1088.147262	717.4000244
1088.709039	715.0
1089.270758	717.5999756
1089.83242	720.7999878
1090.394024	720.2000122
1090.955571	716.2000122
1091.517061	712.0
1092.078493	722.0
1092.639868	716.5999756
1093.201185	719.0
1093.762445	720.5999756
1094.323648	713.0
1094.884793	714.2000122
1095.445881	714.0
1096.006911	714.7999878
1096.567884	719.4000244
1097.1288	724.0
1097.689659	714.7999878
1098.25046	717.2000122
1098.811203	718.5999756
1099.37189	716.0
1099.932518	715.4000244
1100.49309	713.4000244
1101.053604	718.0
1101.614061	713.5999756
1102.174461	716.7999878
1102.734803	713.2000122
1103.295088	715.0
1103.855316	719.2000122
1104.415486	714.2000122
1104.975599	716.7999878
1105.535655	716.2000122
1106.095653	715.4000244
1106.655594	721.2000122
1107.215478	720.2000122
1107.775305	716.2000122
1108.335074	714.7999878
1108.894786	714.5999756
1109.45444	712.4000244
1110.014038	715.5999756
1110.573578	716.4000244
1111.133061	715.7999878
1111.692486	716.0
1112.251854	713.0
1112.811165	715.4000244
1113.370419	712.0
1113.929616	709.2000122
1114.488755	713.4000244
1115.047837	710.2000122
1115.606862	714.4000244
1116.16583	717.0
1116.72474	715.0
1117.283593	717.7999878
1117.842389	715.0
1118.401128	713.5999756
1118.959809	716.2000122
1119.518433	713.7999878
1120.077	719.0
1120.63551	717.0
1121.193963	711.7999878
1121.752358	715.5999756
1122.310697	708.0
1122.868978	715.7999878
1123.427202	716.0
1123.985368	714.4000244
1124.543478	711.7999878
1125.10153	717.2000122
1125.659526	716.2000122
1126.217464	713.7999878
1126.775345	710.0
1127.333168	713.5999756
1127.890935	716.5999756
1128.448644	718.4000244
1129.006297	712.4000244
1129.563892	711.2000122
1130.12143	712.5999756
1130.678911	710.5999756
1131.236335	717.5999756
1131.793701	715.4000244
1132.351011	713.0
1132.908263	714.0
1133.465458	715.2000122
1134.022597	711.0
1134.579678	708.5999756
1135.136702	714.7999878
1135.693669	713.5999756
1136.250578	720.2000122
1136.807431	714.0
1137.364227	711.0
1137.920965	712.4000244
1138.477647	714.4000244
1139.034271	713.7999878
1139.590839	714.0
1140.147349	712.2000122
1140.703802	713.2000122
1141.260198	718.2000122
1141.816537	714.7999878
1142.37282	716.2000122
1142.929045	712.7999878
1143.485213	714.5999756
1144.041323	714.4000244
1144.597377	716.4000244
1145.153374	710.7999878
1145.709314	711.4000244
1146.265197	712.4000244
1146.821023	715.2000122
1147.376792	710.0
1147.932503	711.7999878
1148.488158	711.2000122
1149.043756	712.7999878
1149.599297	713.5999756
1150.154781	718.5999756
1150.710207	717.2000122
1151.265577	714.0
1151.82089	714.7999878
1152.376146	713.7999878
1152.931345	715.2000122
1153.486487	712.5999756
1154.041572	713.7999878
1154.5966	717.5999756
1155.151571	712.0
1155.706485	715.2000122
1156.261342	711.0
1156.816142	713.2000122
1157.370885	713.0
1157.925572	713.7999878
1158.480201	715.2000122
1159.034774	715.0
1159.589289	713.2000122
1160.143748	715.4000244
1160.698149	712.4000244
1161.252494	718.7999878
1161.806782	711.7999878
1162.361013	712.5999756
1162.915187	713.5999756
1163.469304	714.7999878
1164.023364	713.4000244
1164.577368	713.7999878
1165.131314	713.4000244
1165.685204	710.4000244
1166.239036	712.4000244
1166.792812	709.4000244
1167.346531	716.2000122
1167.900193	715.2000122
1168.453798	707.5999756
1169.007347	710.4000244
1169.560838	713.5999756
1170.114273	716.2000122
1170.66765	713.2000122
1171.220971	713.4000244
1171.774235	712.0
1172.327443	712.4000244
1172.880593	709.5999756
1173.433687	708.5999756
1173.986723	712.5999756
1174.539703	710.5999756
1175.092626	713.0
1175.645493	713.0
1176.198302	714.7999878
1176.751055	708.0
1177.303751	712.7999878
1177.85639	712.2000122
1178.408972	711.4000244
1178.961498	714.2000122
1179.513966	713.2000122
1180.066378	711.5999756
1180.618733	707.5999756
1181.171032	712.5999756
1181.723273	713.0
1182.275458	715.0
1182.827586	716.0
1183.379657	711.7999878
1183.931672	711.2000122
1184.48363	707.2000122
1185.035531	707.7999878
1185.587375	709.4000244
1186.139162	711.0
1186.690893	713.2000122
1187.242567	709.7999878
1187.794184	709.7999878
1188.345745	711.7999878
1188.897249	711.7999878
1189.448696	714.5999756
1190.000086	714.0
1190.55142	712.0
1191.102697	711.7999878
1191.653918	712.4000244
1192.205081	715.2000122
1192.756188	707.5999756
1193.858232	713.0
1194.409169	710.0
1194.960049	716.4000244
1195.510872	711.0
1196.061639	710.4000244
1196.612349	711.2000122
1197.163003	710.5999756
1197.713599	711.7999878
1198.264139	713.7999878
1198.814623	708.4000244
1199.36505	709.5999756
1199.91542	714.0
1200.465734	708.7999878
1201.01599	714.5999756
1201.566191	712.7999878
1202.116334	713.2000122
1202.666421	711.2000122
1203.216452	711.5999756
1203.766425	711.0
1204.316343	707.0
1204.866203	709.5999756
1205.416007	707.7999878
1205.965754	710.5999756
1206.515445	710.0
1207.065079	708.7999878
1207.614657	709.4000244
1208.164177	710.5999756
1208.713642	711.7999878
1209.26305	708.4000244
1209.812401	711.2000122
1210.361695	707.0
1210.910933	709.5999756
1211.460115	709.5999756
1212.00924	709.5999756
1212.558308	709.0
1213.10732	711.2000122
1213.656275	712.7999878
1214.205174	711.7999878
1214.754016	712.7999878
1215.302801	712.4000244
1215.85153	711.5999756
1216.400203	710.5999756
1216.948819	712.2000122
1217.497378	712.2000122
1218.045881	708.0
1218.594327	707.5999756
1219.142717	709.2000122
1219.691051	710.7999878
1220.239327	713.0
1220.787548	711.0
1221.335712	713.5999756
1221.883819	713.7999878
1222.43187	712.4000244
1222.979864	718.5999756
1223.527802	712.2000122
1224.075683	711.2000122
1224.623508	711.7999878
1225.171277	712.4000244
1225.718989	714.2000122
1226.266644	710.7999878
1226.814243	714.4000244
1227.361786	713.2000122
1227.909272	710.5999756
1228.456702	711.0
1229.004075	712.5999756
1229.551392	709.5999756
1230.098652	713.2000122
1230.645856	710.4000244
1231.193003	711.7999878
1231.740094	714.0
1232.287129	706.7999878
1232.834107	710.0
1233.381029	714.2000122
1233.927894	707.0
1234.474703	712.0
1235.021455	711.4000244
1235.568151	708.0
1236.114791	708.7999878
1236.661374	706.2000122
1237.207901	708.0
1237.754372	710.2000122
1238.300786	708.7999878
1238.847144	712.4000244
1239.393445	712.0
1239.93969	709.5999756
1240.485879	709.5999756
1241.032011	710.0
1241.578087	712.5999756
1242.124106	712.4000244
1242.67007	709.7999878
1243.215976	705.2000122
1243.761827	712.7999878
1244.307621	710.0
1244.853359	710.7999878
1245.39904	709.7999878
1245.944665	706.7999878
1246.490234	714.4000244
1247.035746	716.0
1247.581203	710.4000244
1248.126602	714.5999756
1248.671946	715.5999756
1249.217233	713.0
1249.762464	716.4000244
1250.307638	713.0
1250.852757	712.0
1251.397819	715.0
1251.942824	709.7999878
1252.487774	707.0
1253.032667	713.5999756
1253.577503	714.4000244
1254.122284	707.7999878
1254.667008	713.4000244
1255.211676	712.7999878
1255.756288	711.4000244
1256.300843	715.0
1256.845342	712.7999878
1257.389785	710.0
1257.934172	714.0
1258.478502	716.7999878
1259.022776	718.7999878
1259.566994	712.2000122
1260.111156	727.2000122
1260.655261	718.2000122
1261.199311	715.7999878
1261.743304	720.5999756
1262.28724	724.2000122
1262.831121	728.5999756
1263.374945	736.7999878
1263.918713	747.0
1264.462425	758.7999878
1265.006081	750.7999878
1265.54968	733.2000122
1266.093223	727.7999878
1266.636711	728.0
1267.180141	713.0
1267.723516	715.0
1268.266835	721.2000122
1268.810097	711.2000122
1269.353303	714.4000244
1269.896453	715.5999756
1270.439547	713.5999756
1270.982584	706.7999878
1271.525566	721.2000122
1272.068491	709.4000244
1272.61136	715.4000244
1273.154173	715.4000244
1273.69693	716.0
1274.239631	713.7999878
1274.782275	715.0
1275.324864	715.5999756
1275.867396	715.7999878
1276.409872	718.5999756
1276.952292	713.0
1277.494656	718.7999878
1278.036964	715.4000244
1278.579215	719.4000244
1279.121411	715.4000244
1279.66355	717.0
1280.205634	726.2000122
1280.747661	723.7999878
1281.289632	729.5999756
1281.831547	743.0
1282.373406	774.2000122
1282.915209	826.7999878
1283.456955	930.4000244
1283.998646	1158.599976
1284.540281	1393.800049
1285.081859	1303.400024
1285.623381	964.5999756
1286.164848	810.2000122
1286.706258	757.0
1287.247612	739.2000122
1287.788911	734.5999756
1288.330153	721.7999878
1288.871339	718.2000122
1289.412469	714.7999878
1289.953543	712.4000244
1290.494561	714.4000244
1291.035523	717.7999878
1291.576428	713.2000122
1292.117278	715.4000244
1292.658072	717.5999756
1293.19881	709.4000244
1293.739492	714.2000122
1294.280118	715.0
1294.820687	714.7999878
1295.361201	717.0
1295.901659	711.5999756
1296.442061	717.7999878
1296.982406	710.2000122
1297.522696	708.7999878
1298.06293	712.4000244
1298.603108	709.4000244
1299.143229	712.2000122
1299.683295	707.4000244
1300.223305	709.2000122
1300.763259	711.2000122
1301.303157	707.5999756
1301.842999	712.4000244
1302.382785	711.4000244
1302.922515	708.2000122
1303.462189	712.4000244
1304.001807	712.2000122
1304.541369	710.4000244
1305.080875	712.0
1305.620326	711.0
1306.15972	708.2000122
1306.699058	709.4000244
1307.238341	704.7999878
1307.777567	709.2000122
1308.316738	714.0
1308.855853	714.0
1309.394912	709.0
1309.933915	710.0
1310.472862	708.2000122
1311.011753	704.4000244
1311.550588	709.0
1312.089367	710.5999756
1312.62809	711.7999878
1313.166758	708.5999756
1313.70537	709.0
1314.243925	706.0
1314.782425	708.7999878
1315.320869	708.0
1315.859257	709.0
1316.397589	709.5999756
1316.935866	707.2000122
1317.474086	709.2000122
1318.012251	710.4000244
1318.55036	705.7999878
1319.088413	709.7999878
1319.62641	707.4000244
1320.164351	706.5999756
1320.702236	711.0
1321.240066	707.5999756
1321.777839	706.7999878
1322.315557	703.7999878
1322.853219	704.0
1323.390826	711.7999878
1323.928376	712.0
1324.465871	713.5999756
1325.003309	709.4000244
1325.540692	708.2000122
1326.07802	710.0
1326.615291	708.4000244
1327.152506	710.7999878
1327.689666	706.5999756
1328.22677	707.2000122
1328.763818	706.7999878
1329.300811	706.5999756
1329.837747	705.2000122
1330.374628	705.2000122
1330.911453	709.7999878
1331.448222	709.5999756
1331.984936	707.0
1332.521594	708.5999756
1333.058196	711.5999756
1333.594742	708.0
1334.131232	710.2000122
1334.667667	708.0
1335.204046	707.2000122
1335.740369	704.7999878
1336.276637	702.5999756
1336.812848	707.2000122
1337.349004	709.4000244
1337.885105	703.5999756
1338.421149	705.5999756
1338.957138	708.0
1339.493071	704.5999756
1340.028949	704.4000244
1340.56477	708.4000244
1341.100536	709.4000244
1341.636246	705.5999756
1342.171901	706.7999878
1342.7075	707.5999756
1343.243043	706.5999756
1343.77853	708.7999878
1344.313962	708.0
1344.849338	710.5999756
1345.384659	710.0
1345.919923	704.4000244
1346.455133	705.4000244
1346.990286	709.0
1347.525384	705.2000122
1348.060426	704.2000122
1348.595412	703.4000244
1349.130343	705.7999878
1349.665218	708.7999878
1350.200037	707.2000122
1350.734801	708.0
1351.269509	709.5999756
1351.804162	703.7999878
1352.338758	709.4000244
1352.8733	709.5999756
1353.407785	708.5999756
1353.942215	705.4000244
1354.476589	709.7999878
1355.010908	707.4000244
1355.545171	710.2000122
1356.079379	707.2000122
1356.61353	706.0
1357.147627	707.7999878
1357.681667	711.0
1358.215652	710.2000122
1358.749582	708.5999756
1359.283456	708.0
1359.817274	710.2000122
1360.351037	710.2000122
1360.884744	704.5999756
1361.418395	705.0
1361.951991	709.0
1362.485531	707.2000122
1363.019016	707.2000122
1363.552445	709.5999756
1364.085819	708.0
1364.619137	709.0
1365.1524	710.7999878
1365.685607	712.5999756
1366.218758	712.5999756
1366.751854	705.0
1367.284894	705.5999756
1367.817879	706.5999756
1368.350808	709.7999878
1368.883682	709.0
1369.4165	720.0
1369.949263	729.0
1370.48197	720.5999756
1371.014622	716.4000244
1371.547218	711.5999756
1372.079758	708.5999756
1372.612244	712.4000244
1373.144673	706.2000122
1373.677047	708.4000244
1374.209366	712.5999756
1374.741629	708.2000122
1375.273836	708.2000122
1375.805989	708.2000122
1376.338085	709.4000244
1376.870126	711.5999756
1377.402112	708.7999878
1377.934042	707.4000244
1378.465917	712.5999756
1378.997736	712.0
1379.5295	709.5999756
1380.061208	716.4000244
1380.592861	709.4000244
1381.124459	712.2000122
1381.656	716.5999756
1382.187487	715.2000122
1382.718918	713.4000244
1383.250294	720.0
1383.781614	721.4000244
1384.312879	726.5999756
1384.844088	731.4000244
1385.375242	745.4000244
1385.90634	763.4000244
1386.437383	814.2000122
1386.968371	930.2000122
1387.499303	1286.800049
1388.03018	1996.400024
1388.561001	1885.800049
1389.091767	1136.0
1389.622478	846.4000244
1390.153133	770.7999878
1390.683733	752.7999878
1391.214277	732.5999756
1391.744766	723.0
1392.2752	721.4000244
1392.805578	722.0
1393.335901	720.0
1393.866168	716.5999756
1394.396381	711.5999756
1394.926537	716.7999878
1395.456639	717.5999756
1395.986685	709.5999756
1396.516675	709.2000122
1397.046611	715.7999878
1397.576491	709.2000122
1398.106315	710.2000122
1398.636084	710.2000122
1399.165798	708.7999878
1399.695457	705.4000244
1400.22506	711.5999756
1400.754608	711.5999756
1401.284101	710.2000122
1401.813538	709.4000244
1402.34292	708.5999756
1402.872247	705.7999878
1403.401518	713.0
1403.930734	706.5999756
1404.459895	708.7999878
1404.989	711.5999756
1405.51805	712.4000244
1406.047045	713.4000244
1406.575984	715.2000122
1407.104869	723.4000244
1407.633697	721.4000244
1408.162471	728.4000244
1408.691189	749.4000244
1409.219852	781.7999878
1409.74846	789.7999878
1410.277013	769.5999756
1410.80551	738.0
1411.333952	721.4000244
1411.862339	716.4000244
1412.39067	711.2000122
1412.918946	706.5999756
1413.447167	709.4000244
1413.975333	707.7999878
1414.503444	712.7999878
1415.031499	704.2000122
1415.559499	716.4000244
1416.087444	707.4000244
1416.615333	705.2000122
1417.143167	708.5999756
1417.670947	707.5999756
1418.19867	707.0
1418.726339	704.7999878
1419.253952	708.4000244
1419.781511	699.4000244
1420.309014	707.0
1420.836461	703.0
1421.363854	701.7999878
1421.891191	705.7999878
1422.418474	703.2000122
1422.945701	708.7999878
1423.472872	711.0
1423.999989	706.2000122
1424.52705	704.5999756
1425.054057	706.5999756
1425.581008	708.0
1426.107904	704.2000122
1426.634745	705.2000122
1427.16153	706.2000122
1427.688261	705.7999878
1428.214936	699.4000244
1428.741556	700.5999756
1429.268121	705.0
1429.794631	704.0
1430.321085	698.7999878
1430.847485	706.0
1431.373829	696.7999878
1431.900118	705.2000122
1432.426353	704.2000122
1432.952532	702.4000244
1433.478655	701.7999878
1434.004724	701.0
1434.530738	702.0
1435.056696	701.0
1435.5826	702.7999878
1436.108448	701.4000244
1436.634241	699.5999756
1437.159979	702.0
1437.685662	700.7999878
1438.21129	702.7999878
1438.736863	702.7999878
1439.262381	702.0
1439.787843	703.2000122
1440.313251	699.4000244
1440.838603	699.5999756
1441.3639	698.0
1441.889143	698.0
1442.41433	701.4000244
1442.939462	700.5999756
1443.464539	700.2000122
1443.989561	702.5999756
1444.514528	700.2000122
1445.03944	696.5999756
1445.564297	698.0
1446.089099	700.2000122
1446.613846	699.0
1447.138537	700.5999756
1447.663174	701.0
1448.187756	698.2000122
1448.712282	697.5999756
1449.236754	695.5999756
1449.761171	698.5999756
1450.285532	696.2000122
1450.809839	699.4000244
1451.33409	699.5999756
1451.858287	698.5999756
1452.382428	701.2000122
1452.906515	698.4000244
1453.430546	699.7999878
1453.954523	698.4000244
1454.478444	697.2000122
1455.002311	698.0
1455.526123	697.5999756
1456.049879	697.4000244
1456.573581	696.4000244
1457.097227	698.0
1457.620819	698.5999756
1458.144356	700.5999756
1458.667837	698.4000244
1459.191264	700.2000122
1459.714636	694.4000244
1460.237952	698.7999878
1460.761214	699.5999756
1461.284421	699.5999756
1461.807573	701.4000244
1462.33067	699.7999878
1462.853712	700.5999756
1463.376699	697.7999878
1463.899632	702.0
1464.422509	696.7999878
1464.945331	702.7999878
1465.468099	700.2000122
1465.990811	696.0
1466.513469	693.7999878
1467.036071	698.4000244
1467.558619	700.7999878
1468.081112	694.5999756
1468.60355	700.5999756
1469.125933	699.0
1469.648261	697.5999756
1470.170534	697.2000122
1470.692752	691.5999756
1471.214916	699.5999756
1471.737024	698.4000244
1472.259078	700.7999878
1472.781077	696.5999756
1473.303021	694.7999878
1473.82491	700.0
1474.346744	699.2000122
1474.868523	697.4000244
1475.390248	697.5999756
1475.911917	698.2000122
1476.433532	700.2000122
1476.955092	698.7999878
1477.476597	695.4000244
1477.998047	700.2000122
1478.519442	695.4000244
1479.040783	697.5999756
1479.562068	693.0
1480.083299	701.4000244
1480.604475	696.5999756
1481.125596	699.4000244
1481.646663	695.5999756
1482.167674	693.2000122
1482.688631	700.0
1483.209533	700.2000122
1483.73038	698.2000122
1484.251172	697.7999878
1484.771909	699.5999756
1485.292592	695.5999756
1485.81322	697.2000122
1486.333793	698.0
1486.854311	696.5999756
1487.374775	696.7999878
1487.895183	694.7999878
1488.415537	697.2000122
1488.935836	698.4000244
1489.456081	698.5999756
1489.97627	698.2000122
1490.496405	696.0
1491.016485	693.4000244
1491.536511	694.7999878
1492.056481	699.0
1492.576397	698.4000244
1493.096258	697.0
1493.616064	696.2000122
1494.135816	696.4000244
1494.655513	691.7999878
1495.175155	693.5999756
1495.694742	693.2000122
1496.214274	697.5999756
1496.733752	698.4000244
1497.253175	697.7999878
1497.772544	697.2000122
1498.291858	694.5999756
1498.811116	695.2000122
1499.330321	696.4000244
1499.84947	700.0
1500.368565	694.2000122
1500.887605	695.2000122
1501.406591	695.0
1501.925521	696.7999878
1502.444397	697.0
1502.963219	692.0
1503.481985	695.7999878
1504.000697	699.2000122
1504.519355	694.0
1505.037957	699.7999878
1505.556505	696.0
1506.074999	692.5999756
1506.593437	694.0
1507.111821	693.5999756
1507.63015	695.4000244
1508.148425	695.2000122
1508.666645	695.0
1509.18481	697.2000122
1509.702921	692.7999878
1510.220977	699.4000244
1510.738979	705.2000122
1511.256925	695.5999756
1511.774817	695.5999756
1512.292655	698.0
1512.810438	696.5999756
1513.328166	695.2000122
1513.84584	696.5999756
1514.363459	695.2000122
1514.881023	700.4000244
1515.398533	698.0
1515.915988	698.0
1516.433389	694.5999756
1516.950734	695.4000244
1517.468026	694.2000122
1517.985263	695.4000244
1518.502445	693.7999878
1519.019572	694.7999878
1519.536645	692.0
1520.053664	694.4000244
1520.570628	699.7999878
1521.087537	696.7999878
1521.604392	699.5999756
1522.121192	697.5999756
1522.637937	692.5999756
1523.154628	694.7999878
1523.671265	697.0
1524.187847	695.4000244
1524.704374	694.4000244
1525.220847	693.4000244
1525.737265	696.7999878
1526.253629	696.7999878
1526.769938	696.5999756
1527.286192	697.4000244
1527.802392	696.0
1528.318538	695.7999878
1528.834629	696.4000244
1529.350666	696.0
1529.866648	692.4000244
1530.382575	694.4000244
1530.898448	696.0
1531.414266	693.4000244
1531.93003	695.4000244
1532.44574	700.7999878
1532.961395	696.0
1533.476995	696.7999878
1533.992541	694.4000244
1534.508033	694.7999878
1535.02347	691.2000122
1535.538852	694.2000122
1536.05418	697.4000244
1536.569454	695.4000244
1537.084673	691.0
1537.599837	697.7999878
1538.114947	694.7999878
1538.630003	694.4000244
1539.145004	694.4000244
1539.659951	696.0
1540.174843	693.7999878
1540.689681	695.0
1541.204465	693.7999878
1541.719194	698.5999756
1542.233868	690.4000244
1542.748488	696.2000122
1543.263054	691.4000244
1543.777565	695.5999756
1544.292022	693.2000122
1544.806424	697.5999756
1545.320772	696.4000244
1545.835066	696.2000122
1546.349305	692.5999756
1546.863489	694.4000244
1547.37762	693.7999878
1547.891696	691.5999756
1548.405717	695.5999756
1548.919684	693.2000122
1549.433597	693.0
1549.947455	689.2000122
1550.461259	693.4000244
1550.975009	691.2000122
1551.488704	696.0
1552.002345	694.7999878
1552.515931	697.5999756
1553.029463	689.7999878
1553.542941	694.7999878
1554.056364	694.4000244
1554.569733	695.2000122
1555.083048	696.4000244
1555.596308	693.0
1556.109514	694.4000244
1556.622665	693.5999756
1557.135762	694.2000122
1557.648805	697.4000244
1558.161794	696.0
1558.674728	694.0
1559.187608	693.5999756
1559.700433	694.5999756
1560.213205	698.0
1560.725921	692.4000244
1561.238584	691.7999878
1561.751192	696.7999878
1562.263746	691.5999756
1562.776246	693.4000244
1563.288691	693.4000244
1563.801082	694.0
1564.313419	695.0
1564.825701	690.2000122
1565.337929	699.4000244
1565.850103	691.4000244
1566.362223	697.2000122
1566.874288	691.7999878
1567.386299	694.0
1567.898256	695.4000244
1568.410158	693.4000244
1568.922007	692.4000244
1569.4338	692.4000244
1569.94554	694.7999878
1570.457226	695.7999878
1570.968857	693.7999878
1571.480434	695.7999878
1571.991956	693.0
1572.503425	696.0
1573.014839	699.2000122
1573.526199	693.0
1574.037505	695.7999878
1574.548756	697.4000244
1575.059953	695.5999756
1575.571096	693.4000244
1576.082185	692.4000244
1576.59322	697.5999756
1577.1042	692.2000122
1577.615126	691.0
1578.125998	690.0
1578.636816	693.5999756
1579.14758	693.0
1579.658289	691.5999756
1580.168944	693.4000244
1580.679545	695.5999756
1581.190092	693.0
1581.700585	690.7999878
1582.211023	694.5999756
1582.721407	693.4000244
1583.231737	694.0
1583.742013	689.5999756
1584.252235	696.2000122
1584.762403	689.7999878
1585.272516	692.4000244
1585.782575	696.0
1586.292581	696.0
1586.802532	691.0
1587.312428	694.5999756
1587.822271	690.2000122
1588.33206	693.2000122
1588.841794	690.7999878
1589.351474	691.7999878
1589.8611	690.5999756
1590.370672	693.5999756
1590.88019	694.0
1591.389654	694.0
1591.899064	694.5999756
1592.408419	692.0
