1042.452273	1780.800049
1043.018714	1792.800049
1043.585098	1778.199951
1044.151424	1796.400024
1044.717692	1787.599976
1045.283903	1793.800049
1045.850056	1787.400024
1046.416151	1777.800049
1046.982188	1768.599976
1047.548167	1797.800049
1048.114089	1797.800049
1048.679953	1779.400024
1049.24576	1795.199951
1049.811509	1787.0
1050.3772	1775.800049
1050.942833	1762.0
1051.508408	1783.599976
1052.073926	1769.599976
1052.639387	1782.199951
1053.204789	1768.400024
1053.770134	1797.800049
1054.335421	1780.0
1054.900651	1791.800049
1055.465823	1750.0
1056.030937	1771.599976
1056.595993	1782.400024
1057.160992	1770.400024
1057.725934	1759.599976
1058.290817	1769.199951
1058.855643	1759.199951
1059.420411	1762.199951
1059.985122	1752.599976
1060.549775	1775.800049
1061.114371	1773.800049
1061.678908	1762.199951
1062.243389	1754.0
1062.807811	1765.800049
1063.372176	1761.599976
1063.936483	1773.599976
1064.500733	1758.199951
1065.064925	1759.800049
1065.62906	1757.599976
1066.193137	1765.800049
1066.757156	1761.199951
1067.321118	1765.400024
1067.885022	1763.599976
1068.448869	1778.400024
1069.012658	1743.400024
1069.57639	1758.599976
1070.140063	1773.400024
1070.70368	1766.599976
1071.267239	1760.599976
1071.83074	1761.800049
1072.394184	1752.800049
1072.95757	1769.0
1073.520899	1758.800049
1074.08417	1775.800049
1074.647383	1752.800049
1075.21054	1761.599976
1075.773638	1754.800049
1076.336679	1754.0
1076.899663	1756.199951
1077.462589	1758.400024
1078.025457	1739.400024
1078.588268	1757.599976
1079.151022	1745.400024
1079.713718	1744.0
1080.276356	1745.599976
1080.838937	1756.400024
1081.401461	1744.800049
1081.963927	1762.800049
1082.526336	1734.599976
1083.088687	1748.800049
1083.650981	1752.0
1084.213217	1737.0
1084.775396	1721.800049
1085.337517	1761.400024
1085.899581	1729.400024
1086.461587	1741.0
1087.023536	1740.800049
1087.585428	1745.800049
1088.147262	1750.199951
1088.709039	1746.199951
1089.270758	1752.599976
1089.83242	1744.800049
1090.394024	1729.599976
1090.955571	1743.599976
1091.517061	1728.599976
1092.078493	1739.199951
1092.639868	1742.599976
1093.201185	1744.800049
1093.762445	1732.400024
1094.323648	1728.0
1094.884793	1721.800049
1095.445881	1722.199951
1096.006911	1728.400024
1096.567884	1733.800049
1097.1288	1719.800049
1097.689659	1730.599976
1098.25046	1731.599976
1098.811203	1753.800049
1099.37189	1728.599976
1099.932518	1727.599976
1100.49309	1720.800049
1101.053604	1718.400024
1101.614061	1710.400024
1102.174461	1719.199951
1102.734803	1713.599976
1103.295088	1712.199951
1103.855316	1724.800049
1104.415486	1723.599976
1104.975599	1715.800049
1105.535655	1727.199951
1106.095653	1713.0
1106.655594	1709.400024
1107.215478	1721.599976
1107.775305	1719.0
1108.335074	1703.199951
1108.894786	1737.400024
1109.45444	1718.800049
1110.014038	1704.199951
1110.573578	1709.199951
1111.133061	1720.800049
1111.692486	1709.400024
1112.251854	1725.0
1112.811165	1704.800049
1113.370419	1708.599976
1113.929616	1704.599976
1114.488755	1707.0
1115.047837	1702.800049
1115.606862	1717.800049
1116.16583	1704.800049
1116.72474	1731.800049
1117.283593	1703.400024
1117.842389	1700.199951
1118.401128	1687.599976
1118.959809	1701.0
1119.518433	1697.400024
1120.077	1709.0
1120.63551	1705.199951
1121.193963	1710.800049
1121.752358	1694.599976
1122.310697	1698.199951
1122.868978	1693.599976
1123.427202	1706.800049
1123.985368	1703.199951
1124.543478	1697.0
1125.10153	1700.599976
1125.659526	1708.199951
1126.217464	1703.0
1126.775345	1700.400024
1127.333168	1703.400024
1127.890935	1701.599976
1128.448644	1693.199951
1129.006297	1697.599976
1129.563892	1697.599976
1130.12143	1714.599976
1130.678911	1703.599976
1131.236335	1693.400024
1131.793701	1688.400024
1132.351011	1697.400024
1132.908263	1684.400024
1133.465458	1708.199951
1134.022597	1689.199951
1134.579678	1705.599976
1135.136702	1694.0
1135.693669	1711.599976
1136.250578	1692.599976
1136.807431	1709.0
1137.364227	1705.800049
1137.920965	1696.599976
1138.477647	1689.800049
1139.034271	1713.400024
1139.590839	1695.199951
1140.147349	1704.199951
1140.703802	1698.800049
1141.260198	1685.599976
1141.816537	1697.599976
1142.37282	1694.199951
1142.929045	1682.599976
1143.485213	1703.800049
1144.041323	1689.400024
1144.597377	1698.599976
1145.153374	1707.400024
1145.709314	1696.0
1146.265197	1700.800049
1146.821023	1709.599976
1147.376792	1705.0
1147.932503	1703.400024
1148.488158	1701.199951
1149.043756	1703.199951
1149.599297	1700.800049
1150.154781	1697.800049
1150.710207	1718.0
1151.265577	1674.199951
1151.82089	1709.400024
1152.376146	1694.599976
1152.931345	1698.800049
1153.486487	1692.0
1154.041572	1707.199951
1154.5966	1706.400024
1155.151571	1701.800049
1155.706485	1714.0
1156.261342	1704.199951
1156.816142	1689.0
1157.370885	1721.199951
1157.925572	1703.199951
1158.480201	1699.0
1159.034774	1693.800049
1159.589289	1722.800049
1160.143748	1707.599976
1160.698149	1712.400024
1161.252494	1705.599976
1161.806782	1702.0
1162.361013	1697.199951
1162.915187	1712.599976
1163.469304	1716.599976
1164.023364	1703.0
1164.577368	1684.199951
1165.131314	1691.0
1165.685204	1694.199951
1166.239036	1702.0
1166.792812	1718.599976
1167.346531	1708.0
1167.900193	1715.400024
1168.453798	1723.199951
1169.007347	1707.599976
1169.560838	1699.800049
1170.114273	1715.599976
1170.66765	1707.199951
1171.220971	1695.800049
1171.774235	1708.400024
1172.327443	1706.400024
1172.880593	1706.599976
1173.433687	1707.599976
1173.986723	1697.0
1174.539703	1688.0
1175.092626	1704.800049
1175.645493	1705.0
1176.198302	1700.0
1176.751055	1704.800049
1177.303751	1700.0
1177.85639	1708.199951
1178.408972	1694.199951
1178.961498	1708.400024
1179.513966	1722.800049
1180.066378	1702.800049
1180.618733	1683.0
1181.171032	1691.800049
1181.723273	1694.400024
1182.275458	1704.599976
1182.827586	1676.599976
1183.379657	1695.0
1183.931672	1713.599976
1184.48363	1705.599976
1185.035531	1716.599976
1185.587375	1685.0
1186.139162	1712.599976
1186.690893	1696.599976
1187.242567	1705.199951
1187.794184	1710.199951
1188.345745	1709.599976
1188.897249	1694.800049
1189.448696	1679.400024
1190.000086	1708.800049
1190.55142	1694.199951
1191.102697	1702.800049
1191.653918	1696.0
1192.205081	1704.0
1192.756188	1697.599976
1193.307238	1701.800049
1193.858232	1695.0
1194.409169	1698.199951
1194.960049	1692.199951
1195.510872	1696.0
1196.061639	1689.800049
1196.612349	1696.599976
1197.163003	1693.800049
1197.713599	1707.800049
1198.264139	1717.800049
1198.814623	1675.800049
1199.36505	1701.800049
1199.91542	1693.0
1200.465734	1677.199951
1201.01599	1687.400024
1201.566191	1670.599976
1202.116334	1697.0
1202.666421	1709.400024
1203.216452	1704.800049
1203.766425	1703.599976
1204.316343	1697.0
1204.866203	1690.0
1205.416007	1695.400024
1205.965754	1697.800049
1206.515445	1691.0
1207.065079	1699.599976
1207.614657	1693.400024
1208.164177	1690.199951
1208.713642	1686.599976
1209.26305	1712.199951
1209.812401	1671.800049
1210.361695	1690.599976
1210.910933	1694.0
1211.460115	1703.199951
1212.00924	1689.800049
1212.558308	1681.400024
1213.10732	1690.0
1213.656275	1695.199951
1214.205174	1703.800049
1214.754016	1681.400024
1215.302801	1700.599976
1215.85153	1686.199951
1216.400203	1697.800049
1216.948819	1689.0
1217.497378	1687.199951
1218.045881	1699.800049
1218.594327	1677.199951
1219.142717	1679.800049
1219.691051	1686.0
1220.239327	1685.0
1220.787548	1689.0
1221.335712	1684.599976
1221.883819	1692.599976
1222.43187	1701.0
1222.979864	1696.800049
1223.527802	1671.0
1224.075683	1684.199951
1224.623508	1683.199951
1225.171277	1690.199951
1225.718989	1678.599976
1226.266644	1686.0
1226.814243	1694.0
1227.361786	1671.0
1227.909272	1677.599976
1228.456702	1688.400024
1229.004075	1667.599976
1229.551392	1684.0
1230.098652	1706.0
1230.645856	1681.400024
1231.193003	1684.800049
1231.740094	1684.0
1232.287129	1672.800049
1232.834107	1675.599976
1233.381029	1684.0
1233.927894	1678.400024
1234.474703	1679.599976
1235.021455	1672.199951
1235.568151	1675.400024
1236.114791	1674.199951
1236.661374	1699.400024
1237.207901	1677.199951
1237.754372	1668.599976
1238.300786	1685.599976
1238.847144	1682.199951
1239.393445	1677.599976
1239.93969	1684.199951
1240.485879	1686.0
1241.032011	1681.800049
1241.578087	1692.199951
1242.124106	1689.599976
1242.67007	1676.599976
1243.215976	1693.599976
1243.761827	1704.800049
1244.307621	1674.800049
1244.853359	1685.800049
1245.39904	1688.199951
1245.944665	1692.199951
1246.490234	1682.0
1247.035746	1707.0
1247.581203	1684.199951
1248.126602	1674.199951
1248.671946	1673.800049
1249.217233	1682.199951
1249.762464	1682.199951
1250.307638	1681.800049
1250.852757	1688.599976
1251.397819	1689.400024
1251.942824	1671.400024
1252.487774	1683.599976
1253.032667	1680.800049
1253.577503	1691.400024
1254.122284	1661.400024
1254.667008	1682.599976
1255.211676	1676.0
1255.756288	1672.400024
1256.300843	1676.199951
1256.845342	1694.400024
1257.389785	1682.800049
1257.934172	1684.0
1258.478502	1670.599976
1259.022776	1696.599976
1259.566994	1683.599976
1260.111156	1689.400024
1260.655261	1673.599976
1261.199311	1671.599976
1261.743304	1679.599976
1262.28724	1679.400024
1262.831121	1666.0
1263.374945	1678.199951
1263.918713	1684.800049
1264.462425	1693.599976
1265.006081	1726.400024
1265.54968	1752.400024
1266.093223	1703.400024
1266.636711	1686.400024
1267.180141	1688.800049
1267.723516	1679.800049
1268.266835	1685.199951
1268.810097	1680.199951
1269.353303	1673.599976
1269.896453	1683.800049
1270.439547	1667.0
1270.982584	1671.199951
1271.525566	1680.400024
1272.068491	1674.800049
1272.61136	1665.800049
1273.154173	1675.0
1273.69693	1675.400024
1274.239631	1672.599976
1274.782275	1693.400024
1275.324864	1664.800049
1275.867396	1663.199951
1276.409872	1668.800049
1276.952292	1664.400024
1277.494656	1688.0
1278.036964	1665.199951
1278.579215	1680.599976
1279.121411	1682.800049
1279.66355	1679.199951
1280.205634	1665.800049
1280.747661	1681.400024
1281.289632	1679.0
1281.831547	1672.599976
1282.373406	1690.0
1282.915209	1686.800049
1283.456955	1692.0
1283.998646	1712.199951
1284.540281	1823.199951
1285.081859	2190.399902
1285.623381	2761.600098
1286.164848	2151.399902
1286.706258	1766.599976
1287.247612	1713.199951
1287.788911	1675.800049
1288.330153	1676.199951
1288.871339	1680.599976
1289.412469	1683.599976
1289.953543	1679.599976
1290.494561	1660.199951
1291.035523	1670.599976
1291.576428	1666.0
1292.117278	1660.400024
1292.658072	1669.400024
1293.19881	1678.0
1293.739492	1650.0
1294.280118	1675.400024
1294.820687	1654.400024
1295.361201	1658.199951
1295.901659	1655.800049
1296.442061	1637.0
1296.982406	1664.599976
1297.522696	1663.0
1298.06293	1674.0
1298.603108	1657.599976
1299.143229	1666.400024
1299.683295	1666.0
1300.223305	1661.599976
1300.763259	1666.0
1301.303157	1650.199951
1301.842999	1661.199951
1302.382785	1665.0
1302.922515	1672.0
1303.462189	1652.800049
1304.001807	1670.0
1304.541369	1657.400024
1305.080875	1667.800049
1305.620326	1662.800049
1306.15972	1635.0
1306.699058	1651.199951
1307.238341	1664.400024
1307.777567	1650.800049
1308.316738	1646.599976
1308.855853	1645.599976
1309.394912	1657.0
1309.933915	1642.199951
1310.472862	1650.800049
1311.011753	1659.800049
1311.550588	1652.800049
1312.089367	1650.599976
1312.62809	1653.400024
1313.166758	1659.199951
1313.70537	1646.800049
1314.243925	1642.0
1314.782425	1645.599976
1315.320869	1672.0
1315.859257	1655.800049
1316.397589	1642.800049
1316.935866	1650.400024
1317.474086	1638.400024
1318.012251	1653.400024
1318.55036	1656.199951
1319.088413	1643.800049
1319.62641	1647.599976
1320.164351	1648.199951
1320.702236	1635.0
1321.777839	1638.0
1322.315557	1645.0
1322.853219	1641.199951
1323.390826	1652.800049
1323.928376	1655.800049
1324.465871	1647.599976
1325.003309	1643.0
1325.540692	1639.0
1326.07802	1641.0
1326.615291	1632.400024
1327.152506	1635.800049
1327.689666	1649.800049
1328.22677	1649.599976
1328.763818	1629.800049
1329.300811	1639.0
1329.837747	1631.599976
1330.374628	1654.0
1330.911453	1643.400024
1331.448222	1635.800049
1331.984936	1617.0
1332.521594	1646.599976
1333.058196	1639.800049
1333.594742	1638.199951
1334.131232	1635.0
1334.667667	1651.599976
1335.204046	1638.199951
1335.740369	1641.599976
1336.276637	1647.0
1336.812848	1652.0
1337.349004	1644.400024
1337.885105	1651.599976
1338.421149	1649.599976
1338.957138	1655.0
1339.493071	1634.0
1340.028949	1631.400024
1340.56477	1637.199951
1341.100536	1642.400024
1341.636246	1636.0
1342.171901	1646.199951
1342.7075	1644.0
1343.243043	1623.400024
1343.77853	1629.400024
1344.313962	1628.0
1344.849338	1635.0
1345.384659	1622.400024
1345.919923	1632.199951
1346.455133	1636.599976
1346.990286	1629.400024
1347.525384	1624.0
1348.060426	1650.599976
1348.595412	1629.599976
1349.130343	1629.800049
1349.665218	1629.0
1350.200037	1629.599976
1350.734801	1644.599976
1351.269509	1627.599976
1351.804162	1639.0
1352.338758	1637.800049
1352.8733	1630.599976
1353.407785	1637.0
1353.942215	1626.400024
1354.476589	1613.800049
1355.010908	1633.400024
1355.545171	1614.199951
1356.079379	1632.800049
1356.61353	1635.400024
1357.147627	1641.199951
1357.681667	1636.0
1358.215652	1627.0
1358.749582	1637.199951
1359.283456	1635.0
1359.817274	1628.800049
1360.351037	1626.599976
1360.884744	1650.800049
1361.418395	1620.199951
1361.951991	1633.800049
1362.485531	1625.0
1363.019016	1632.199951
1363.552445	1620.800049
1364.085819	1644.0
1364.619137	1630.199951
1365.1524	1634.599976
1365.685607	1615.199951
1366.218758	1635.400024
1366.751854	1622.599976
1367.284894	1631.599976
1367.817879	1627.800049
1368.350808	1630.0
1368.883682	1623.400024
1369.4165	1622.0
1369.949263	1635.800049
1370.48197	1643.599976
1371.014622	1641.199951
1371.547218	1624.0
1372.079758	1643.199951
1372.612244	1618.0
1373.144673	1643.800049
1373.677047	1623.599976
1374.209366	1628.400024
1374.741629	1618.599976
1375.273836	1629.800049
1375.805989	1630.599976
1376.338085	1612.800049
1376.870126	1625.400024
1377.402112	1634.800049
1377.934042	1632.199951
1378.465917	1625.400024
1378.997736	1626.400024
1379.5295	1621.800049
1380.061208	1618.800049
1380.592861	1627.0
1381.124459	1629.199951
1381.656	1637.0
1382.187487	1617.599976
1383.250294	1624.0
1383.781614	1645.800049
1384.312879	1637.199951
1384.844088	1633.199951
1385.375242	1631.199951
1385.90634	1630.599976
1386.437383	1639.400024
1386.968371	1656.199951
1387.499303	1705.800049
1388.03018	1937.599976
1388.561001	3104.0
1389.091767	3121.399902
1389.622478	1926.0
1390.153133	1700.599976
1390.683733	1651.199951
1391.214277	1658.199951
1391.744766	1635.400024
1392.2752	1631.199951
1392.805578	1623.199951
1393.335901	1622.400024
1393.866168	1619.0
1394.396381	1636.800049
1394.926537	1617.800049
1395.456639	1623.599976
1395.986685	1643.0
1396.516675	1625.599976
1397.046611	1617.599976
1397.576491	1631.800049
1398.106315	1623.599976
1398.636084	1629.0
1399.165798	1629.400024
1399.695457	1627.599976
1400.22506	1632.800049
1400.754608	1615.599976
1401.284101	1643.400024
1401.813538	1624.400024
1402.34292	1635.0
1402.872247	1627.599976
1403.401518	1640.599976
1403.930734	1618.199951
1404.459895	1636.199951
1404.989	1644.400024
1405.51805	1612.800049
1406.047045	1627.599976
1406.575984	1618.800049
1407.104869	1623.800049
1407.633697	1629.800049
1408.162471	1629.400024
1408.691189	1641.199951
1409.219852	1657.400024
1409.74846	1724.0
1410.277013	1768.599976
1410.80551	1668.800049
1411.333952	1644.800049
1411.862339	1619.0
1412.39067	1628.199951
1412.918946	1625.800049
1413.447167	1628.800049
1413.975333	1618.199951
1414.503444	1633.400024
1415.031499	1633.599976
1415.559499	1642.400024
1416.087444	1612.599976
1416.615333	1618.800049
1417.143167	1617.599976
1417.670947	1605.199951
1418.19867	1624.0
1418.726339	1624.199951
1419.253952	1644.800049
1419.781511	1613.400024
1420.309014	1638.400024
1420.836461	1627.0
1421.363854	1647.0
1421.891191	1628.800049
1422.418474	1620.400024
1422.945701	1634.599976
1423.472872	1632.599976
1423.999989	1631.0
1424.52705	1640.400024
1425.054057	1628.599976
1425.581008	1637.199951
1426.107904	1642.800049
1426.634745	1645.199951
1427.16153	1624.0
1427.688261	1645.599976
1428.214936	1636.400024
1428.741556	1607.400024
1429.268121	1632.599976
1429.794631	1629.0
1430.321085	1626.199951
1430.847485	1614.0
1431.373829	1615.400024
1431.900118	1649.599976
1432.426353	1613.800049
1432.952532	1622.599976
1433.478655	1630.599976
1434.004724	1616.400024
1434.530738	1615.599976
1435.056696	1629.599976
1435.5826	1605.800049
1436.108448	1606.599976
1436.634241	1629.199951
1437.159979	1638.599976
1437.685662	1617.800049
1438.21129	1623.400024
1438.736863	1601.199951
1439.262381	1631.199951
1439.787843	1615.0
1440.313251	1616.199951
1440.838603	1628.800049
1441.3639	1607.199951
1441.889143	1625.800049
1442.41433	1621.400024
1442.939462	1632.800049
1443.464539	1622.199951
1443.989561	1618.199951
1444.514528	1618.599976
1445.03944	1625.800049
1445.564297	1619.400024
1446.089099	1629.599976
1446.613846	1615.800049
1447.138537	1607.400024
1447.663174	1633.400024
1448.187756	1606.199951
1448.712282	1625.0
1449.236754	1623.800049
1449.761171	1640.0
1450.285532	1611.400024
1450.809839	1618.800049
1451.33409	1627.199951
1451.858287	1617.400024
1452.382428	1611.800049
1452.906515	1624.0
1453.430546	1613.599976
1453.954523	1593.599976
1454.478444	1616.400024
1455.002311	1624.199951
1455.526123	1616.400024
1456.049879	1617.199951
1456.573581	1613.400024
1457.097227	1607.800049
1457.620819	1617.400024
1458.144356	1628.199951
1458.667837	1621.599976
1459.191264	1615.0
1459.714636	1612.0
1460.237952	1606.800049
1460.761214	1612.400024
1461.284421	1618.400024
1461.807573	1632.800049
1462.33067	1626.800049
1462.853712	1618.0
1463.376699	1625.0
1463.899632	1624.400024
1464.422509	1623.0
1464.945331	1622.599976
1465.468099	1622.599976
1465.990811	1616.800049
1466.513469	1615.400024
1467.036071	1628.400024
1467.558619	1623.199951
1468.081112	1624.800049
1468.60355	1607.800049
1469.125933	1620.0
1469.648261	1624.199951
1470.170534	1608.199951
1470.692752	1624.0
1471.214916	1599.800049
1471.737024	1612.199951
1472.259078	1612.800049
1472.781077	1633.0
1473.303021	1623.199951
1473.82491	1605.800049
1474.346744	1616.199951
1474.868523	1616.0
1475.390248	1606.599976
1475.911917	1609.599976
1476.433532	1614.599976
1476.955092	1607.599976
1477.476597	1614.199951
1477.998047	1613.0
1478.519442	1617.0
1479.040783	1606.199951
1479.562068	1622.199951
1480.083299	1618.199951
1480.604475	1612.599976
1481.125596	1614.0
1481.646663	1611.199951
1482.167674	1620.599976
1482.688631	1606.800049
1483.209533	1606.599976
1483.73038	1594.0
1484.251172	1598.400024
1484.771909	1609.400024
1485.292592	1609.800049
1485.81322	1618.800049
1486.333793	1596.800049
1486.854311	1591.400024
1487.374775	1589.199951
1487.895183	1603.599976
1488.415537	1608.800049
1488.935836	1596.199951
1489.456081	1610.400024
1489.97627	1611.0
1490.496405	1618.599976
1491.016485	1601.599976
1491.536511	1616.800049
1492.056481	1607.800049
1492.576397	1587.400024
1493.096258	1600.199951
1493.616064	1604.199951
1494.135816	1601.199951
1494.655513	1595.0
1495.175155	1602.0
1495.694742	1604.199951
1496.214274	1597.800049
1496.733752	1599.800049
1497.253175	1597.400024
1497.772544	1608.0
1498.291858	1609.599976
1498.811116	1620.199951
1499.330321	1598.800049
1499.84947	1599.599976
1500.368565	1592.599976
1500.887605	1611.400024
1501.406591	1595.400024
1501.925521	1614.400024
1502.444397	1580.0
1502.963219	1603.199951
1503.481985	1589.199951
1504.000697	1598.400024
1504.519355	1595.0
1505.037957	1597.400024
1505.556505	1615.199951
1506.074999	1592.199951
1506.593437	1592.400024
1507.111821	1586.0
1507.63015	1596.400024
1508.148425	1594.199951
1508.666645	1616.199951
1509.18481	1598.199951
1509.702921	1611.400024
1510.220977	1592.199951
1510.738979	1615.199951
1511.256925	1615.400024
1511.774817	1620.0
1512.292655	1600.400024
1512.810438	1587.199951
1513.328166	1600.599976
1513.84584	1586.0
1514.363459	1616.199951
1514.881023	1586.599976
1515.398533	1607.400024
1515.915988	1607.400024
1516.433389	1596.400024
1516.950734	1605.0
1517.468026	1613.0
1517.985263	1597.800049
1518.502445	1591.400024
1519.019572	1617.400024
1519.536645	1608.599976
1520.053664	1578.800049
1520.570628	1586.400024
1521.087537	1591.199951
1521.604392	1601.199951
1522.121192	1599.400024
1522.637937	1603.800049
1523.154628	1591.400024
1523.671265	1615.0
1524.187847	1599.0
1524.704374	1604.199951
1525.220847	1609.400024
1525.737265	1610.800049
1526.253629	1594.0
1526.769938	1603.800049
1527.286192	1602.599976
1527.802392	1595.0
1528.318538	1610.800049
1528.834629	1592.0
1529.350666	1601.199951
1529.866648	1592.0
1530.382575	1597.599976
1530.898448	1602.0
1531.414266	1601.599976
1531.93003	1579.599976
1532.44574	1603.0
1532.961395	1584.400024
1533.476995	1598.800049
1533.992541	1589.599976
1534.508033	1586.400024
1535.02347	1600.400024
1535.538852	1604.400024
1536.05418	1592.599976
1536.569454	1608.199951
1537.084673	1600.0
1537.599837	1591.400024
1538.114947	1582.199951
1538.630003	1608.400024
1539.145004	1612.800049
1539.659951	1593.199951
1540.174843	1588.199951
1540.689681	1612.400024
1541.204465	1599.0
1541.719194	1605.800049
1542.233868	1595.599976
1542.748488	1594.400024
1543.263054	1602.400024
1543.777565	1605.0
1544.292022	1607.0
1544.806424	1594.199951
1545.320772	1597.0
1545.835066	1601.199951
1546.349305	1593.400024
1546.863489	1596.599976
1547.37762	1612.0
1547.891696	1601.0
1548.405717	1618.199951
1548.919684	1587.0
1549.433597	1595.0
1549.947455	1620.800049
1550.461259	1606.599976
1550.975009	1586.800049
1551.488704	1599.599976
1552.002345	1600.0
1552.515931	1582.800049
1553.029463	1596.800049
1553.542941	1597.800049
1554.056364	1602.599976
1554.569733	1604.400024
1555.083048	1600.199951
1555.596308	1603.599976
1556.109514	1608.0
1556.622665	1598.0
1557.135762	1598.199951
1557.648805	1617.599976
1558.161794	1596.599976
1558.674728	1600.599976
1559.187608	1595.599976
1559.700433	1591.400024
1560.213205	1594.400024
1560.725921	1597.0
1561.238584	1604.599976
1561.751192	1610.599976
1562.263746	1599.599976
1562.776246	1602.199951
1563.288691	1620.199951
1563.801082	1585.400024
1564.313419	1610.599976
1564.825701	1596.800049
1565.337929	1630.199951
1565.850103	1592.199951
1566.362223	1609.800049
1566.874288	1591.199951
1567.386299	1600.400024
1567.898256	1606.400024
1568.410158	1589.0
1568.922007	1599.400024
1569.4338	1603.800049
1569.94554	1612.800049
1570.457226	1588.0
1570.968857	1608.0
1571.480434	1599.0
1571.991956	1596.800049
1572.503425	1587.800049
1573.014839	1630.0
1573.526199	1608.800049
1574.037505	1605.400024
1574.548756	1610.599976
1575.059953	1601.599976
1575.571096	1609.0
1576.082185	1606.400024
1576.59322	1613.599976
1577.1042	1609.599976
1577.615126	1600.199951
1578.125998	1597.599976
1578.636816	1603.800049
1579.14758	1603.199951
1579.658289	1594.0
1580.168944	1605.199951
1580.679545	1595.400024
1581.190092	1600.400024
1581.700585	1617.800049
1582.211023	1599.800049
1582.721407	1590.800049
1583.231737	1605.800049
1583.742013	1594.800049
1584.252235	1616.199951
1584.762403	1600.400024
1585.272516	1601.599976
1585.782575	1617.800049
1586.292581	1591.199951
1586.802532	1600.400024
1587.312428	1607.800049
1587.822271	1603.800049
1588.33206	1600.400024
1588.841794	1604.199951
1589.351474	1603.400024
1589.8611	1579.0
1590.370672	1604.199951
1590.88019	1591.599976
1591.389654	1605.599976
1591.899064	1599.599976
1592.408419	1620.0
