1043.018714	2087.0
1043.585098	2093.199951
1044.151424	2095.0
1044.717692	2086.199951
1045.283903	2090.0
1045.850056	2076.0
1046.416151	2086.600098
1046.982188	2095.600098
1047.548167	2089.399902
1048.114089	2087.800049
1048.679953	2080.399902
1049.24576	2075.600098
1049.811509	2075.600098
1050.3772	2062.800049
1050.942833	2084.399902
1051.508408	2079.0
1052.073926	2067.0
1052.639387	2084.600098
1053.204789	2082.0
1053.770134	2075.600098
1054.335421	2079.600098
1054.900651	2093.199951
1055.465823	2084.199951
1056.030937	2077.399902
1056.595993	2080.199951
1057.160992	2065.399902
1057.725934	2078.0
1058.290817	2080.600098
1058.855643	2056.199951
1059.420411	2087.199951
1059.985122	2067.399902
1060.549775	2085.0
1061.114371	2059.800049
1061.678908	2079.0
1062.243389	2086.800049
1062.807811	2068.800049
1063.372176	2046.800049
1063.936483	2075.399902
1064.500733	2040.0
1065.064925	2070.0
1065.62906	2061.199951
1066.193137	2071.199951
1066.757156	2071.800049
1067.321118	2082.399902
1067.885022	2058.600098
1068.448869	2069.399902
1069.012658	2073.0
1069.57639	2075.800049
1070.140063	2069.800049
1070.70368	2070.0
1071.267239	2067.199951
1071.83074	2051.600098
1072.394184	2049.199951
1072.95757	2059.399902
1073.520899	2067.800049
1074.08417	2073.600098
1074.647383	2057.199951
1075.21054	2051.600098
1075.773638	2053.199951
1076.336679	2061.199951
1076.899663	2040.0
1077.462589	2051.199951
1078.025457	2035.400024
1078.588268	2067.800049
1079.151022	2042.800049
1079.713718	2051.0
1080.276356	2043.400024
1080.838937	2032.199951
1081.401461	2048.199951
1081.963927	2041.800049
1082.526336	2029.199951
1083.088687	2061.199951
1083.650981	2046.0
1084.213217	2052.399902
1084.775396	2036.199951
1085.337517	2031.400024
1085.899581	2047.199951
1086.461587	2032.400024
1087.023536	2040.199951
1087.585428	2036.599976
1088.147262	2011.199951
1088.709039	2044.400024
1089.270758	2039.400024
1089.83242	2032.800049
1090.394024	2024.599976
1090.955571	2045.599976
1091.517061	2006.800049
1092.078493	2029.199951
1092.639868	2003.800049
1093.201185	2012.0
1093.762445	2017.800049
1094.323648	2033.599976
1094.884793	2016.599976
1095.445881	2014.199951
1096.006911	2013.800049
1096.567884	2010.199951
1097.1288	2011.199951
1097.689659	2024.199951
1098.25046	2011.0
1098.811203	2024.0
1099.37189	2002.599976
1099.932518	2015.199951
1100.49309	2007.599976
1101.053604	1997.0
1101.614061	1981.199951
1102.174461	2014.199951
1102.734803	1981.800049
1103.295088	1992.199951
1103.855316	1994.400024
1104.415486	2006.599976
1104.975599	1995.0
1105.535655	1999.800049
1106.095653	1983.599976
1106.655594	1997.800049
1107.215478	1969.800049
1107.775305	2006.0
1108.335074	1982.800049
1108.894786	1995.0
1109.45444	1976.800049
1110.014038	2000.199951
1110.573578	1975.400024
1111.133061	1975.199951
1111.692486	1989.599976
1112.251854	1990.400024
1112.811165	1970.599976
1113.370419	1984.400024
1113.929616	1978.0
1114.488755	1997.0
1115.047837	1991.0
1115.606862	1978.599976
1116.16583	1973.0
1116.72474	1997.599976
1117.283593	1987.599976
1117.842389	1969.400024
1118.401128	1977.400024
1118.959809	1986.0
1119.518433	1986.0
1120.077	1986.400024
1120.63551	1960.800049
1121.193963	1954.800049
1121.752358	1974.199951
1122.310697	1985.199951
1122.868978	1977.0
1123.427202	1992.0
1123.985368	1973.599976
1124.543478	1980.0
1125.10153	1966.199951
1125.659526	1963.0
1126.217464	1959.400024
1126.775345	1972.0
1127.333168	1972.0
1127.890935	1964.599976
1128.448644	1961.599976
1129.006297	1960.599976
1129.563892	1977.400024
1130.12143	1983.199951
1130.678911	1969.800049
1131.236335	1970.0
1131.793701	1959.599976
1132.351011	1978.400024
1132.908263	1961.199951
1133.465458	1967.599976
1134.022597	1968.199951
1134.579678	1957.0
1135.136702	1964.800049
1135.693669	1959.0
1136.250578	1978.400024
1136.807431	1981.599976
1137.364227	1977.400024
1137.920965	1965.0
1138.477647	1962.199951
1139.034271	1956.400024
1139.590839	1967.800049
1140.147349	1969.0
1140.703802	1950.400024
1141.260198	1987.199951
1141.816537	1956.800049
1142.37282	1957.599976
1142.929045	1967.199951
1143.485213	1941.800049
1144.041323	1967.800049
1144.597377	1971.400024
1145.153374	1968.400024
1145.709314	1964.199951
1146.265197	1965.199951
1146.821023	1963.0
1147.376792	1964.0
1147.932503	1957.400024
1148.488158	1964.0
1149.043756	1973.599976
1149.599297	1983.599976
1150.154781	1952.0
1150.710207	1970.0
1151.265577	1977.800049
1151.82089	1991.0
1152.376146	1975.599976
1152.931345	1951.400024
1153.486487	1968.199951
1154.041572	1947.0
1154.5966	1952.0
1155.151571	1960.800049
1155.706485	1969.599976
1156.261342	1975.400024
1156.816142	1974.0
1157.370885	1981.400024
1157.925572	1986.800049
1158.480201	1968.199951
1159.034774	1959.400024
1159.589289	1947.800049
1160.143748	1950.599976
1160.698149	1988.199951
1161.252494	1958.599976
1161.806782	1959.199951
1162.361013	1997.0
1162.915187	1996.199951
1163.469304	1966.0
1164.023364	1975.400024
1164.577368	1947.0
1165.131314	1979.400024
1165.685204	1945.599976
1166.239036	1978.0
1166.792812	1951.400024
1167.346531	1969.199951
1167.900193	1948.800049
1168.453798	1967.199951
1169.007347	1952.400024
1169.560838	1957.800049
1170.114273	1942.599976
1170.66765	1949.599976
1171.220971	1961.599976
1171.774235	1972.800049
1172.327443	1945.400024
1172.880593	1976.199951
1173.433687	1956.599976
1173.986723	1953.400024
1174.539703	1964.0
1175.092626	1981.199951
1175.645493	1955.599976
1176.198302	1944.800049
1176.751055	1959.0
1177.303751	1954.599976
1177.85639	1960.800049
1178.408972	1968.599976
1178.961498	1964.199951
1179.513966	1961.199951
1180.066378	1954.800049
1180.618733	1974.0
1181.171032	1944.400024
1181.723273	1940.599976
1182.275458	1957.800049
1182.827586	1956.800049
1183.379657	1948.0
1183.931672	1949.199951
1184.48363	1958.599976
1185.035531	1960.199951
1185.587375	1950.800049
1186.139162	1955.599976
1186.690893	1950.400024
1187.242567	1944.199951
1187.794184	1958.400024
1188.345745	1961.400024
1188.897249	1950.400024
1189.448696	1950.0
1190.000086	1963.0
1190.55142	1946.400024
1191.102697	1950.599976
1191.653918	1946.599976
1192.205081	1944.199951
1192.756188	1962.400024
1193.307238	1947.599976
1193.858232	1933.199951
1194.409169	1946.0
1194.960049	1939.599976
1195.510872	1944.400024
1196.061639	1956.599976
1196.612349	1942.599976
1197.163003	1945.599976
1197.713599	1941.0
1198.264139	1946.599976
1198.814623	1922.800049
1199.36505	1955.199951
1199.91542	1945.800049
1200.465734	1935.199951
1201.01599	1923.599976
1201.566191	1926.599976
1202.116334	1942.0
1202.666421	1935.400024
1203.216452	1932.599976
1203.766425	1934.800049
1204.316343	1928.199951
1204.866203	1934.199951
1205.416007	1935.800049
1205.965754	1930.800049
1206.515445	1920.599976
1207.065079	1923.400024
1207.614657	1933.800049
1208.164177	1936.800049
1208.713642	1934.0
1209.26305	1927.599976
1209.812401	1923.400024
1210.361695	1923.599976
1210.910933	1928.400024
1211.460115	1924.800049
1212.00924	1912.800049
1212.558308	1926.199951
1213.10732	1921.400024
1213.656275	1917.0
1214.205174	1931.400024
1214.754016	1939.400024
1215.302801	1931.400024
1215.85153	1932.0
1216.400203	1922.400024
1216.948819	1924.0
1217.497378	1933.0
1218.045881	1925.0
1218.594327	1917.599976
1219.142717	1915.599976
1219.691051	1940.0
1220.239327	1914.400024
1220.787548	1929.0
1221.335712	1917.599976
1221.883819	1939.0
1222.43187	1930.800049
1222.979864	1910.0
1223.527802	1914.199951
1224.075683	1910.599976
1224.623508	1899.199951
1225.171277	1917.0
1225.718989	1912.599976
1226.266644	1921.800049
1226.814243	1903.599976
1227.361786	1918.0
1227.909272	1901.800049
1228.456702	1902.199951
1229.004075	1926.199951
1229.551392	1924.199951
1230.098652	1915.400024
1230.645856	1905.0
1231.193003	1913.599976
1231.740094	1899.599976
1232.287129	1902.400024
1232.834107	1900.400024
1233.381029	1908.199951
1233.927894	1919.0
1234.474703	1902.400024
1235.021455	1915.599976
1235.568151	1917.599976
1236.114791	1908.199951
1236.661374	1911.0
1237.207901	1905.199951
1237.754372	1913.800049
1238.300786	1902.199951
1238.847144	1899.800049
1239.393445	1902.599976
1239.93969	1907.400024
1240.485879	1916.0
1241.032011	1912.599976
1241.578087	1888.800049
1242.124106	1900.400024
1242.67007	1903.400024
1243.215976	1893.800049
1243.761827	1893.599976
1244.307621	1901.0
1244.853359	1882.800049
1245.39904	1904.800049
1245.944665	1906.199951
1246.490234	1892.599976
1247.035746	1907.800049
1247.581203	1903.400024
1248.126602	1899.400024
1248.671946	1919.0
1249.217233	1911.199951
1249.762464	1905.400024
1250.307638	1905.400024
1250.852757	1902.400024
1251.397819	1908.599976
1251.942824	1890.199951
1252.487774	1894.800049
1253.032667	1893.199951
1253.577503	1917.400024
1254.122284	1890.199951
1254.667008	1897.0
1255.211676	1885.400024
1255.756288	1878.800049
1256.300843	1877.800049
1256.845342	1906.400024
1257.389785	1892.400024
1257.934172	1898.199951
1258.478502	1886.800049
1259.022776	1898.800049
1259.566994	1896.400024
1260.111156	1905.599976
1260.655261	1900.599976
1261.199311	1877.0
1261.743304	1888.0
1262.28724	1886.199951
1262.831121	1902.800049
1263.374945	1900.199951
1263.918713	1905.199951
1264.462425	1889.199951
1265.006081	1915.0
1265.54968	1908.199951
1266.093223	1912.599976
1266.636711	1882.800049
1267.180141	1895.599976
1267.723516	1895.599976
1268.266835	1910.599976
1268.810097	1866.199951
1269.353303	1879.0
1269.896453	1887.800049
1270.439547	1893.400024
1270.982584	1878.800049
1271.525566	1893.800049
1272.068491	1882.400024
1272.61136	1894.199951
1273.154173	1891.400024
1273.69693	1879.400024
1274.239631	1890.800049
1274.782275	1888.599976
1275.324864	1875.400024
1275.867396	1878.800049
1276.409872	1895.800049
1276.952292	1887.800049
1277.494656	1880.800049
1278.036964	1891.599976
1278.579215	1871.400024
1279.121411	1885.599976
1279.66355	1888.400024
1280.205634	1891.199951
1280.747661	1856.599976
1281.289632	1867.400024
1281.831547	1858.199951
1282.373406	1879.800049
1282.915209	1892.800049
1283.456955	1871.800049
1283.998646	1896.0
1284.540281	1888.0
1285.081859	1962.599976
1285.623381	2209.800049
1286.164848	2103.800049
1286.706258	1918.0
1287.247612	1890.400024
1287.788911	1882.400024
1288.330153	1863.0
1288.871339	1871.599976
1289.412469	1877.599976
1289.953543	1882.199951
1290.494561	1863.400024
1291.035523	1866.800049
1291.576428	1861.0
1292.117278	1874.400024
1292.658072	1868.0
1293.19881	1840.800049
1293.739492	1858.0
1294.280118	1848.199951
1294.820687	1861.199951
1295.361201	1846.599976
1295.901659	1857.199951
1296.442061	1864.0
1296.982406	1861.400024
1297.522696	1866.800049
1298.06293	1850.599976
1298.603108	1852.400024
1299.143229	1857.599976
1299.683295	1857.400024
1300.223305	1844.400024
1300.763259	1866.400024
1301.303157	1862.400024
1301.842999	1855.599976
1302.382785	1866.199951
1302.922515	1866.0
1303.462189	1848.199951
1304.001807	1874.800049
1304.541369	1836.400024
1305.080875	1875.0
1305.620326	1860.199951
1306.15972	1856.599976
1306.699058	1863.0
1307.238341	1866.199951
1307.777567	1869.800049
1308.316738	1849.0
1308.855853	1853.400024
1309.394912	1854.0
1309.933915	1854.400024
1310.472862	1853.599976
1311.011753	1849.0
1311.550588	1837.400024
1312.089367	1879.0
1312.62809	1847.199951
1313.166758	1849.0
1313.70537	1854.0
1314.243925	1866.0
1314.782425	1846.0
1315.320869	1830.599976
1315.859257	1847.0
1316.397589	1864.400024
1316.935866	1856.599976
1317.474086	1867.800049
1318.012251	1839.0
1318.55036	1844.800049
1319.088413	1842.0
1319.62641	1835.800049
1320.164351	1863.400024
1320.702236	1844.400024
1321.240066	1837.400024
1321.777839	1837.599976
1322.315557	1830.599976
1322.853219	1844.199951
1323.390826	1847.800049
1323.928376	1845.0
1324.465871	1851.0
1325.003309	1829.400024
1325.540692	1838.800049
1326.07802	1832.800049
1326.615291	1832.599976
1327.152506	1821.199951
1327.689666	1843.199951
1328.22677	1845.199951
1328.763818	1846.800049
1329.300811	1849.199951
1329.837747	1840.800049
1330.374628	1829.599976
1330.911453	1833.400024
1331.448222	1846.199951
1331.984936	1833.599976
1332.521594	1829.0
1333.058196	1811.599976
1333.594742	1829.400024
1334.131232	1831.400024
1334.667667	1831.199951
1335.204046	1824.400024
1335.740369	1822.800049
1336.276637	1830.0
1336.812848	1841.800049
1337.349004	1839.400024
1337.885105	1856.400024
1338.421149	1836.0
1338.957138	1822.599976
1339.493071	1826.199951
1340.028949	1813.400024
1340.56477	1819.400024
1341.100536	1839.599976
1341.636246	1843.199951
1342.171901	1820.400024
1342.7075	1835.199951
1343.243043	1821.400024
1343.77853	1841.400024
1344.313962	1830.400024
1344.849338	1830.599976
1345.384659	1844.599976
1345.919923	1829.800049
1346.455133	1834.800049
1346.990286	1824.400024
1347.525384	1817.800049
1348.060426	1825.800049
1348.595412	1813.599976
1349.130343	1835.599976
1349.665218	1822.0
1350.200037	1822.800049
1350.734801	1828.199951
1351.269509	1831.599976
1351.804162	1812.599976
1352.338758	1816.400024
1352.8733	1821.800049
1353.407785	1807.400024
1353.942215	1822.800049
1354.476589	1818.800049
1355.010908	1815.800049
1355.545171	1819.400024
1356.079379	1825.800049
1356.61353	1818.199951
1357.147627	1826.599976
1357.681667	1809.599976
1358.215652	1804.800049
1358.749582	1830.800049
1359.283456	1825.400024
1359.817274	1815.400024
1360.351037	1816.400024
1360.884744	1827.0
1361.418395	1821.0
1361.951991	1811.0
1362.485531	1805.800049
1363.019016	1811.800049
1363.552445	1809.199951
1364.085819	1807.599976
1364.619137	1806.199951
1365.1524	1825.800049
1365.685607	1801.199951
1366.218758	1805.0
1366.751854	1819.199951
1367.284894	1795.199951
1367.817879	1806.800049
1368.350808	1813.400024
1368.883682	1813.199951
1369.4165	1801.400024
1369.949263	1819.0
1370.48197	1816.599976
1371.014622	1833.0
1371.547218	1796.400024
1372.079758	1809.599976
1372.612244	1806.199951
1373.144673	1820.599976
1373.677047	1812.599976
1374.209366	1799.199951
1374.741629	1808.0
1375.273836	1807.400024
1375.805989	1803.800049
1376.338085	1818.400024
1376.870126	1820.0
1377.402112	1801.599976
1377.934042	1792.199951
1378.465917	1802.0
1378.997736	1798.0
1379.5295	1801.599976
1380.061208	1792.400024
1380.592861	1796.599976
1381.124459	1805.199951
1381.656	1799.199951
1382.187487	1801.800049
1382.718918	1807.400024
1383.250294	1813.199951
1383.781614	1782.0
1384.312879	1806.599976
1384.844088	1813.0
1385.375242	1805.800049
1385.90634	1782.599976
1386.437383	1807.800049
1386.968371	1806.400024
1387.499303	1832.599976
1388.03018	1838.199951
1388.561001	2156.800049
1389.091767	2363.800049
1389.622478	1914.0
1390.153133	1822.800049
1390.683733	1797.0
1391.214277	1811.0
1391.744766	1782.400024
1392.2752	1799.599976
1392.805578	1800.0
1393.335901	1823.0
1393.866168	1796.800049
1394.396381	1784.400024
1394.926537	1808.400024
1395.456639	1796.599976
1395.986685	1810.599976
1396.516675	1804.800049
1397.046611	1795.0
1397.576491	1802.800049
1398.106315	1796.199951
1398.636084	1781.800049
1399.165798	1792.199951
1399.695457	1784.0
1400.22506	1802.400024
1400.754608	1799.599976
1401.284101	1792.800049
1401.813538	1797.599976
1402.34292	1798.599976
1402.872247	1794.0
1403.401518	1791.800049
1403.930734	1795.400024
1404.459895	1789.599976
1404.989	1802.800049
1405.51805	1793.0
1406.047045	1787.800049
1406.575984	1803.0
1407.104869	1805.800049
1407.633697	1804.599976
1408.162471	1802.400024
1408.691189	1796.0
1409.219852	1810.599976
1409.74846	1824.599976
1410.277013	1835.0
1410.80551	1819.599976
1411.333952	1791.599976
1411.862339	1790.199951
1412.39067	1784.199951
1412.918946	1785.199951
1413.447167	1788.400024
1413.975333	1792.599976
1414.503444	1784.599976
1415.031499	1777.599976
1415.559499	1797.400024
1416.087444	1784.400024
1416.615333	1784.800049
1417.143167	1792.0
1417.670947	1784.800049
1418.19867	1775.599976
1418.726339	1792.800049
1419.253952	1795.400024
1419.781511	1780.800049
1420.309014	1803.0
1420.836461	1793.0
1421.363854	1799.800049
1421.891191	1785.199951
1422.418474	1809.400024
1422.945701	1793.199951
1423.472872	1788.0
1423.999989	1804.0
1424.52705	1780.199951
1425.054057	1789.599976
1425.581008	1797.199951
1426.107904	1813.0
1426.634745	1799.800049
1427.16153	1796.800049
1427.688261	1784.199951
1428.214936	1805.400024
1428.741556	1780.199951
1429.268121	1782.400024
1429.794631	1781.199951
1430.321085	1784.0
1430.847485	1783.800049
1431.373829	1778.400024
1431.900118	1781.0
1432.426353	1770.0
1432.952532	1788.400024
1433.478655	1771.400024
1434.004724	1765.800049
1434.530738	1770.599976
1435.056696	1769.0
1435.5826	1780.599976
1436.108448	1785.0
1436.634241	1780.599976
1437.159979	1777.800049
1437.685662	1773.599976
1438.21129	1772.0
1438.736863	1766.400024
1439.262381	1775.0
1439.787843	1782.0
1440.313251	1768.0
1440.838603	1783.599976
1441.3639	1776.599976
1441.889143	1792.0
1442.41433	1790.400024
1442.939462	1776.199951
1443.464539	1767.0
1443.989561	1778.199951
1444.514528	1763.800049
1445.03944	1770.199951
1445.564297	1786.400024
1446.089099	1786.199951
1446.613846	1753.0
1447.138537	1759.199951
1447.663174	1776.599976
1448.187756	1784.0
1448.712282	1782.800049
1449.236754	1777.800049
1449.761171	1756.199951
1450.285532	1758.199951
1450.809839	1776.800049
1451.33409	1773.400024
1451.858287	1768.800049
1452.382428	1774.599976
1452.906515	1772.400024
1453.430546	1769.0
1453.954523	1775.800049
1454.478444	1773.800049
1455.002311	1766.599976
1455.526123	1767.400024
1456.049879	1780.400024
1456.573581	1769.599976
1457.097227	1772.400024
1457.620819	1772.400024
1458.144356	1775.800049
1458.667837	1780.199951
1459.191264	1759.400024
1459.714636	1774.800049
1460.237952	1784.599976
1460.761214	1765.599976
1461.284421	1759.199951
1461.807573	1764.800049
1462.33067	1787.199951
1462.853712	1765.0
1463.376699	1766.199951
1463.899632	1771.599976
1464.422509	1758.800049
1464.945331	1746.599976
1465.468099	1761.800049
1465.990811	1765.0
1466.513469	1759.599976
1467.036071	1751.400024
1467.558619	1746.800049
1468.081112	1772.199951
1468.60355	1751.400024
1469.125933	1757.800049
1469.648261	1762.800049
1470.170534	1762.0
1470.692752	1772.199951
1471.214916	1753.0
1471.737024	1750.800049
1472.259078	1745.800049
1472.781077	1752.400024
1473.303021	1769.199951
1473.82491	1771.199951
1474.346744	1738.199951
1474.868523	1758.0
1475.390248	1753.0
1475.911917	1756.400024
1476.433532	1734.599976
1476.955092	1731.800049
1477.476597	1749.599976
1477.998047	1760.199951
1478.519442	1764.800049
1479.040783	1756.199951
1479.562068	1748.800049
1480.083299	1756.0
1480.604475	1746.599976
1481.125596	1762.599976
1481.646663	1742.0
1482.167674	1753.400024
1482.688631	1741.199951
1483.209533	1753.599976
1483.73038	1752.599976
1484.251172	1757.0
1484.771909	1748.0
1485.292592	1730.800049
1485.81322	1768.599976
1486.333793	1741.400024
1486.854311	1753.800049
1487.374775	1733.400024
1487.895183	1765.199951
1488.415537	1747.0
1488.935836	1739.800049
1489.456081	1736.0
1489.97627	1739.800049
1490.496405	1735.400024
1491.016485	1735.0
1491.536511	1732.400024
1492.056481	1725.0
1492.576397	1737.0
1493.096258	1741.199951
1493.616064	1736.599976
1494.135816	1739.599976
1494.655513	1731.400024
1495.175155	1747.800049
1495.694742	1733.800049
1496.214274	1742.199951
1496.733752	1729.400024
1497.253175	1750.0
1497.772544	1732.400024
1498.291858	1745.0
1498.811116	1741.599976
1499.330321	1729.0
1499.84947	1762.599976
1500.368565	1738.199951
1500.887605	1756.199951
1501.406591	1739.400024
1501.925521	1722.0
1502.444397	1730.800049
1502.963219	1730.400024
1503.481985	1731.199951
1504.000697	1739.0
1504.519355	1722.800049
1505.037957	1730.800049
1505.556505	1737.400024
1506.074999	1754.400024
1506.593437	1746.199951
1507.111821	1732.0
1507.63015	1736.800049
1508.148425	1729.400024
1508.666645	1731.599976
1509.18481	1735.0
1509.702921	1725.199951
1510.220977	1741.400024
1510.738979	1731.800049
1511.256925	1736.599976
1511.774817	1748.199951
1512.292655	1745.599976
1512.810438	1716.800049
1513.328166	1738.400024
1513.84584	1723.599976
1514.363459	1729.199951
1514.881023	1731.800049
1515.398533	1730.0
1515.915988	1727.199951
1516.433389	1755.400024
1516.950734	1728.0
1517.468026	1727.400024
1517.985263	1725.599976
1518.502445	1720.199951
1519.019572	1743.400024
1519.536645	1722.400024
1520.053664	1716.599976
1520.570628	1733.800049
1521.087537	1726.599976
1521.604392	1743.0
1522.121192	1733.599976
1522.637937	1737.0
1523.154628	1728.400024
1523.671265	1729.800049
1524.187847	1727.199951
1524.704374	1724.599976
1525.220847	1722.800049
1525.737265	1724.0
1526.253629	1726.400024
1526.769938	1744.800049
1527.286192	1732.0
1527.802392	1725.800049
1528.318538	1733.599976
1528.834629	1726.599976
1529.350666	1731.199951
1529.866648	1726.199951
1530.382575	1734.199951
1530.898448	1732.199951
1531.414266	1746.599976
1531.93003	1734.800049
1532.44574	1712.400024
1532.961395	1725.800049
1533.476995	1731.800049
1533.992541	1721.800049
1534.508033	1720.800049
1535.02347	1707.400024
1535.538852	1738.400024
1536.05418	1736.599976
1536.569454	1722.800049
1537.084673	1720.400024
1537.599837	1715.0
1538.114947	1736.800049
1538.630003	1717.599976
1539.145004	1730.199951
1539.659951	1726.0
1540.174843	1719.800049
1540.689681	1732.199951
1541.204465	1719.199951
1541.719194	1734.599976
1542.233868	1732.400024
1542.748488	1749.599976
1543.263054	1731.199951
1543.777565	1733.0
1544.292022	1741.199951
1544.806424	1725.599976
1545.320772	1741.599976
1545.835066	1723.0
1546.349305	1726.199951
1546.863489	1708.800049
1547.37762	1728.400024
1547.891696	1724.0
1548.405717	1718.199951
1548.919684	1721.400024
1549.433597	1749.199951
1549.947455	1707.400024
1550.461259	1727.0
1550.975009	1735.599976
1551.488704	1706.599976
1552.002345	1742.0
1552.515931	1708.0
1553.029463	1713.199951
1553.542941	1726.199951
1554.056364	1738.199951
1554.569733	1731.800049
1555.083048	1745.800049
1555.596308	1730.199951
1556.109514	1727.599976
1556.622665	1730.400024
1557.135762	1718.400024
1557.648805	1727.199951
1558.161794	1731.199951
1558.674728	1716.0
1559.187608	1712.0
1559.700433	1720.0
1560.213205	1739.199951
1560.725921	1710.800049
1561.238584	1722.400024
1561.751192	1730.199951
1562.263746	1720.199951
1562.776246	1714.0
1563.288691	1722.199951
1563.801082	1715.400024
1564.313419	1720.800049
1564.825701	1726.800049
1565.337929	1719.0
1565.850103	1723.800049
1566.362223	1747.199951
1566.874288	1720.599976
1567.386299	1724.0
1567.898256	1713.199951
1568.410158	1721.199951
1568.922007	1736.199951
1569.4338	1703.800049
1569.94554	1718.0
1570.457226	1737.400024
1570.968857	1721.400024
1571.480434	1707.599976
1571.991956	1714.0
1572.503425	1735.400024
1573.014839	1709.400024
1573.526199	1737.800049
1574.037505	1715.599976
1574.548756	1716.599976
1575.059953	1712.599976
1575.571096	1734.400024
1576.082185	1722.599976
1576.59322	1734.599976
1577.1042	1696.599976
1577.615126	1718.400024
1578.125998	1715.199951
1578.636816	1721.800049
1579.14758	1708.400024
1579.658289	1722.599976
1580.168944	1743.599976
1580.679545	1709.400024
1581.190092	1732.599976
1581.700585	1708.199951
1582.211023	1718.800049
1582.721407	1705.800049
1583.231737	1704.800049
1583.742013	1717.199951
1584.252235	1704.800049
1584.762403	1732.0
1585.272516	1710.800049
1585.782575	1721.400024
1586.292581	1704.400024
1586.802532	1726.199951
1587.312428	1703.400024
1587.822271	1716.0
1588.33206	1725.400024
1588.841794	1709.199951
1589.351474	1723.0
1589.8611	1715.800049
1590.370672	1707.400024
1590.88019	1718.400024
1591.389654	1743.400024
1591.899064	1712.800049
1592.408419	1719.599976
