1042.452273	3287.0
1043.018714	3302.199951
1043.585098	3275.199951
1044.151424	3306.600098
1044.717692	3282.199951
1045.283903	3291.0
1045.850056	3274.0
1046.416151	3265.600098
1046.982188	3278.199951
1047.548167	3257.399902
1048.114089	3264.800049
1048.679953	3254.600098
1049.24576	3288.600098
1049.811509	3249.199951
1050.3772	3257.600098
1050.942833	3260.600098
1051.508408	3268.800049
1052.073926	3260.399902
1052.639387	3264.399902
1053.204789	3234.600098
1053.770134	3257.199951
1054.335421	3261.800049
1054.900651	3279.800049
1055.465823	3239.600098
1056.030937	3252.800049
1056.595993	3255.199951
1057.160992	3270.600098
1057.725934	3274.600098
1058.290817	3268.600098
1058.855643	3229.800049
1059.420411	3246.600098
1059.985122	3220.399902
1060.549775	3231.600098
1061.114371	3239.0
1061.678908	3244.600098
1062.243389	3212.600098
1062.807811	3244.0
1063.372176	3226.600098
1063.936483	3223.0
1064.500733	3226.800049
1065.064925	3225.199951
1065.62906	3241.600098
1066.193137	3240.199951
1066.757156	3237.0
1067.321118	3226.199951
1067.885022	3206.399902
1068.448869	3212.800049
1069.012658	3217.600098
1069.57639	3215.800049
1070.140063	3225.600098
1070.70368	3206.800049
1071.267239	3197.800049
1071.83074	3202.800049
1072.394184	3234.0
1072.95757	3228.800049
1073.520899	3180.600098
1074.08417	3191.600098
1074.647383	3188.399902
1075.21054	3218.0
1075.773638	3211.800049
1076.336679	3236.600098
1076.899663	3186.199951
1077.462589	3199.600098
1078.025457	3176.0
1078.588268	3196.199951
1079.151022	3179.199951
1079.713718	3194.199951
1080.276356	3184.600098
1080.838937	3154.800049
1081.401461	3162.199951
1081.963927	3161.399902
1082.526336	3158.0
1083.088687	3182.600098
1083.650981	3175.0
1084.213217	3167.600098
1084.775396	3123.600098
1085.337517	3164.399902
1085.899581	3149.600098
1086.461587	3165.0
1087.023536	3142.199951
1087.585428	3173.800049
1088.147262	3104.199951
1088.709039	3139.199951
1089.270758	3131.600098
1089.83242	3164.199951
1090.394024	3133.600098
1090.955571	3123.199951
1091.517061	3124.800049
1092.078493	3135.800049
1092.639868	3113.199951
1093.201185	3113.800049
1093.762445	3106.800049
1094.323648	3117.399902
1094.884793	3129.800049
1095.445881	3147.0
1096.006911	3112.600098
1096.567884	3112.800049
1097.1288	3091.399902
1097.689659	3107.199951
1098.25046	3124.800049
1098.811203	3087.199951
1099.37189	3103.199951
1099.932518	3127.0
1100.49309	3104.800049
1101.053604	3083.800049
1101.614061	3097.0
1102.174461	3106.399902
1102.734803	3050.399902
1103.295088	3074.399902
1103.855316	3089.600098
1104.415486	3078.800049
1104.975599	3066.199951
1105.535655	3116.0
1106.095653	3084.199951
1106.655594	3093.600098
1107.215478	3054.0
1107.775305	3065.800049
1108.335074	3040.600098
1108.894786	3088.0
1109.45444	3042.399902
1110.014038	3053.600098
1110.573578	3026.800049
1111.133061	3058.800049
1111.692486	3055.600098
1112.251854	3056.0
1112.811165	3055.600098
1113.370419	3048.800049
1113.929616	3036.800049
1114.488755	3039.800049
1115.047837	3033.399902
1115.606862	3050.800049
1116.16583	3049.800049
1116.72474	3036.800049
1117.283593	3032.399902
1117.842389	3031.0
1118.401128	3023.0
1118.959809	3055.0
1119.518433	3025.600098
1120.077	3050.399902
1120.63551	3042.800049
1121.193963	3055.800049
1121.752358	3051.0
1122.310697	3012.199951
1122.868978	3053.800049
1123.427202	3025.399902
1123.985368	3016.600098
1124.543478	3023.199951
1125.10153	3017.399902
1125.659526	3000.0
1126.217464	2996.0
1126.775345	3022.0
1127.333168	3021.600098
1127.890935	2998.800049
1128.448644	2997.800049
1129.006297	3019.199951
1129.563892	2987.600098
1130.12143	3018.600098
1130.678911	3003.399902
1131.236335	3022.199951
1131.793701	2999.800049
1132.351011	3025.399902
1132.908263	3007.0
1133.465458	3033.800049
1134.022597	3009.800049
1134.579678	3035.199951
1135.136702	3004.199951
1135.693669	3017.199951
1136.250578	3010.399902
1136.807431	3003.600098
1137.364227	3041.0
1137.920965	3034.800049
1138.477647	3012.399902
1139.034271	2985.800049
1139.590839	3025.399902
1140.147349	3014.199951
1140.703802	2978.800049
1141.260198	3028.800049
1141.816537	3020.600098
1142.37282	2999.800049
1142.929045	3019.0
1143.485213	3000.0
1144.041323	2994.399902
1144.597377	3036.0
1145.153374	2998.0
1145.709314	3027.600098
1146.265197	3013.0
1146.821023	3021.199951
1147.376792	3018.399902
1147.932503	3016.399902
1148.488158	3007.199951
1149.043756	3015.800049
1149.599297	3003.0
1150.154781	3015.600098
1150.710207	3006.0
1151.265577	3024.600098
1151.82089	3009.399902
1152.376146	3001.0
1152.931345	3036.199951
1153.486487	2993.800049
1154.041572	2999.600098
1154.5966	3018.0
1155.151571	3009.199951
1155.706485	3012.199951
1156.261342	3006.0
1156.816142	3008.199951
1157.370885	3022.0
1157.925572	3008.0
1158.480201	2983.600098
1159.034774	3002.199951
1159.589289	3026.600098
1160.143748	2993.199951
1160.698149	3023.199951
1161.252494	3016.0
1161.806782	3025.0
1162.361013	3015.600098
1162.915187	3016.199951
1163.469304	2998.399902
1164.023364	3018.199951
1164.577368	3023.600098
1165.131314	3015.199951
1165.685204	2989.0
1166.239036	3009.399902
1166.792812	2988.399902
1167.346531	3005.800049
1167.900193	2999.600098
1168.453798	2999.800049
1169.007347	2973.800049
1169.560838	3013.199951
1170.114273	2982.600098
1170.66765	3012.199951
1171.220971	3015.199951
1171.774235	2988.0
1172.327443	2984.600098
1172.880593	2998.800049
1173.433687	2996.199951
1173.986723	2985.399902
1174.539703	3015.800049
1175.092626	2979.399902
1175.645493	2981.0
1176.198302	2975.199951
1176.751055	2978.800049
1177.303751	3001.399902
1177.85639	2973.199951
1178.408972	3005.800049
1178.961498	2998.800049
1179.513966	2960.399902
1180.066378	2970.600098
1180.618733	2976.600098
1181.171032	2950.0
1181.723273	2957.199951
1182.275458	3000.399902
1182.827586	2988.199951
1183.379657	2983.0
1183.931672	2940.800049
1184.48363	2968.0
1185.035531	2960.199951
1185.587375	2969.399902
1186.139162	2971.199951
1186.690893	2957.199951
1187.242567	2964.800049
1187.794184	2967.399902
1188.345745	2977.600098
1188.897249	2973.199951
1189.448696	2966.199951
1190.000086	2970.600098
1190.55142	2945.0
1191.102697	2958.0
1191.653918	2966.800049
1192.205081	2976.0
1192.756188	2959.199951
1193.307238	2971.199951
1193.858232	2958.399902
1194.409169	2927.800049
1194.960049	2958.399902
1195.510872	2969.600098
1196.061639	2963.199951
1196.612349	2956.800049
1197.163003	2936.199951
1197.713599	2957.0
1198.264139	2966.0
1198.814623	2943.0
1199.36505	2960.199951
1199.91542	2936.399902
1200.465734	2955.800049
1201.01599	2940.0
1201.566191	2955.199951
1202.116334	2945.600098
1202.666421	2939.399902
1203.216452	2908.199951
1203.766425	2957.600098
1204.316343	2968.399902
1204.866203	2911.600098
1205.416007	2939.399902
1205.965754	2936.0
1206.515445	2944.199951
1207.065079	2922.199951
1207.614657	2938.800049
1208.164177	2921.0
1208.713642	2914.199951
1209.26305	2896.800049
1209.812401	2921.199951
1210.361695	2913.800049
1210.910933	2921.0
1211.460115	2939.600098
1212.00924	2909.600098
1212.558308	2921.600098
1213.10732	2941.0
1213.656275	2904.199951
1214.205174	2930.600098
1214.754016	2897.600098
1215.302801	2938.199951
1215.85153	2907.800049
1216.400203	2922.0
1216.948819	2903.0
1217.497378	2895.800049
1218.045881	2895.800049
1218.594327	2942.800049
1219.142717	2908.0
1219.691051	2914.600098
1220.239327	2909.0
1220.787548	2900.600098
1221.335712	2905.399902
1221.883819	2890.199951
1222.43187	2903.600098
1222.979864	2920.199951
1223.527802	2902.800049
1224.075683	2911.800049
1224.623508	2886.800049
1225.171277	2895.399902
1225.718989	2908.399902
1226.266644	2892.199951
1226.814243	2892.600098
1227.361786	2890.199951
1227.909272	2902.399902
1228.456702	2884.600098
1229.004075	2898.199951
1229.551392	2897.800049
1230.098652	2920.399902
1230.645856	2887.800049
1231.193003	2914.600098
1231.740094	2880.199951
1232.287129	2885.199951
1232.834107	2897.800049
1233.381029	2889.600098
1233.927894	2891.199951
1234.474703	2895.600098
1235.021455	2859.199951
1235.568151	2892.0
1236.114791	2881.399902
1236.661374	2884.600098
1237.207901	2878.600098
1237.754372	2896.199951
1238.300786	2893.199951
1238.847144	2866.600098
1239.393445	2877.0
1239.93969	2896.0
1240.485879	2882.199951
1241.032011	2899.0
1241.578087	2843.600098
1242.124106	2868.199951
1242.67007	2875.399902
1243.215976	2858.199951
1243.761827	2880.600098
1244.307621	2866.0
1244.853359	2862.800049
1245.39904	2878.600098
1245.944665	2896.0
1246.490234	2861.399902
1247.035746	2892.0
1247.581203	2869.199951
1248.126602	2882.800049
1248.671946	2864.0
1249.217233	2849.600098
1249.762464	2872.0
1250.307638	2874.800049
1250.852757	2862.600098
1251.397819	2865.800049
1251.942824	2847.600098
1252.487774	2867.199951
1253.032667	2846.800049
1253.577503	2876.399902
1254.122284	2844.199951
1254.667008	2828.600098
1255.211676	2857.800049
1255.756288	2865.399902
1256.300843	2858.199951
1256.845342	2871.199951
1257.389785	2853.199951
1257.934172	2837.800049
1258.478502	2858.199951
1259.022776	2861.800049
1259.566994	2864.800049
1260.111156	2890.600098
1260.655261	2867.399902
1261.199311	2846.199951
1261.743304	2834.800049
1262.28724	2839.800049
1262.831121	2847.399902
1263.374945	2836.0
1263.918713	2863.800049
1264.462425	2871.399902
1265.006081	2865.800049
1265.54968	2858.399902
1266.093223	2859.399902
1266.636711	2854.399902
1267.180141	2843.199951
1267.723516	2865.800049
1268.266835	2843.600098
1268.810097	2856.399902
1269.353303	2869.399902
1269.896453	2835.399902
1270.439547	2823.800049
1270.982584	2822.600098
1271.525566	2864.800049
1272.068491	2840.399902
1272.61136	2852.600098
1273.154173	2840.399902
1273.69693	2832.0
1274.239631	2838.600098
1274.782275	2825.199951
1275.324864	2857.800049
1275.867396	2832.399902
1276.409872	2828.600098
1276.952292	2820.0
1277.494656	2842.399902
1278.036964	2852.0
1278.579215	2837.199951
1279.121411	2813.0
1279.66355	2833.399902
1280.205634	2827.199951
1280.747661	2831.800049
1281.289632	2835.199951
1281.831547	2828.199951
1282.373406	2820.399902
1282.915209	2837.600098
1283.456955	2828.199951
1283.998646	2846.399902
1284.540281	2834.800049
1285.081859	2899.399902
1285.623381	3062.800049
1286.164848	2985.199951
1287.247612	2854.399902
1287.788911	2833.199951
1288.330153	2801.800049
1288.871339	2822.800049
1289.412469	2819.600098
1289.953543	2794.600098
1290.494561	2810.0
1291.035523	2819.600098
1291.576428	2819.0
1292.117278	2817.0
1292.658072	2816.800049
1293.19881	2808.800049
1293.739492	2793.0
1294.280118	2805.199951
1294.820687	2784.0
1295.361201	2806.399902
1295.901659	2789.600098
1296.442061	2814.800049
1296.982406	2800.800049
1297.522696	2807.600098
1298.06293	2777.399902
1298.603108	2801.800049
1299.143229	2795.199951
1299.683295	2796.0
1300.223305	2767.399902
1300.763259	2807.399902
1301.303157	2801.199951
1301.842999	2804.800049
1302.382785	2761.199951
1302.922515	2796.399902
1303.462189	2787.800049
1304.001807	2776.0
1304.541369	2775.0
1305.080875	2788.600098
1305.620326	2787.199951
1306.15972	2779.800049
1306.699058	2775.199951
1307.238341	2774.0
1307.777567	2795.600098
1308.316738	2776.399902
1308.855853	2774.0
1309.394912	2771.600098
1309.933915	2776.800049
1310.472862	2780.800049
1311.011753	2764.199951
1311.550588	2772.199951
1312.089367	2798.600098
1312.62809	2762.0
1313.166758	2768.800049
1313.70537	2761.0
1314.243925	2774.0
1314.782425	2762.600098
1315.320869	2787.199951
1315.859257	2769.199951
1316.397589	2746.600098
1316.935866	2804.800049
1317.474086	2769.399902
1318.012251	2766.199951
1318.55036	2765.800049
1319.088413	2777.0
1319.62641	2778.600098
1320.164351	2789.199951
1320.702236	2768.800049
1321.240066	2751.0
1321.777839	2755.399902
1322.315557	2751.199951
1322.853219	2764.199951
1323.390826	2762.0
1323.928376	2763.399902
1324.465871	2776.199951
1325.003309	2730.800049
1325.540692	2755.199951
1326.07802	2737.0
1326.615291	2779.600098
1327.152506	2756.0
1327.689666	2776.800049
1328.22677	2745.0
1328.763818	2750.800049
1329.300811	2760.199951
1329.837747	2759.0
1330.374628	2749.0
1330.911453	2757.600098
1331.448222	2738.0
1331.984936	2740.399902
1332.521594	2784.0
1333.058196	2729.399902
1333.594742	2752.199951
1334.131232	2732.800049
1334.667667	2757.199951
1335.204046	2739.199951
1335.740369	2759.600098
1336.276637	2734.800049
1336.812848	2766.800049
1337.349004	2767.800049
1337.885105	2728.600098
1338.421149	2745.0
1338.957138	2743.800049
1339.493071	2734.199951
1340.028949	2729.600098
1340.56477	2737.399902
1341.100536	2718.399902
1341.636246	2747.399902
1342.171901	2734.199951
1342.7075	2744.600098
1343.243043	2709.399902
1343.77853	2715.399902
1344.313962	2723.600098
1344.849338	2733.0
1345.384659	2736.800049
1345.919923	2722.399902
1346.455133	2706.800049
1346.990286	2756.800049
1347.525384	2744.0
1348.060426	2720.399902
1348.595412	2739.199951
1349.130343	2733.399902
1349.665218	2748.800049
1350.200037	2738.800049
1350.734801	2744.0
1351.269509	2713.800049
1351.804162	2736.0
1352.338758	2708.800049
1352.8733	2741.600098
1353.407785	2727.199951
1353.942215	2728.0
1354.476589	2718.0
1355.010908	2687.600098
1355.545171	2703.600098
1356.079379	2730.600098
1356.61353	2724.600098
1357.147627	2726.600098
1357.681667	2706.199951
1358.215652	2724.399902
1358.749582	2707.399902
1359.283456	2718.0
1359.817274	2704.600098
1360.351037	2689.0
1360.884744	2710.399902
1361.418395	2700.600098
1361.951991	2711.600098
1362.485531	2687.600098
1363.019016	2715.199951
1363.552445	2684.199951
1364.085819	2696.800049
1364.619137	2722.600098
1365.1524	2710.199951
1365.685607	2689.399902
1366.218758	2704.0
1366.751854	2656.800049
1367.284894	2699.399902
1367.817879	2705.0
1368.350808	2701.600098
1368.883682	2687.399902
1369.4165	2685.199951
1369.949263	2697.0
1370.48197	2691.199951
1371.014622	2682.600098
1371.547218	2676.399902
1372.079758	2692.399902
1372.612244	2683.199951
1373.144673	2698.600098
1373.677047	2691.399902
1374.209366	2719.0
1374.741629	2679.800049
1375.273836	2690.800049
1375.805989	2681.0
1376.338085	2681.800049
1376.870126	2652.800049
1377.402112	2710.0
1377.934042	2698.600098
1378.465917	2716.399902
1378.997736	2665.399902
1379.5295	2667.600098
1380.061208	2687.399902
1380.592861	2683.199951
1381.124459	2682.399902
1381.656	2675.800049
1382.187487	2698.0
1382.718918	2683.0
1383.250294	2707.199951
1383.781614	2679.800049
1384.312879	2677.800049
1384.844088	2650.199951
1385.375242	2656.399902
1385.90634	2684.0
1386.437383	2693.0
1386.968371	2684.399902
1387.499303	2700.199951
1388.03018	2730.800049
1388.561001	2927.399902
1389.091767	3012.199951
1389.622478	2729.0
1390.153133	2687.600098
1390.683733	2672.800049
1391.214277	2687.800049
1391.744766	2661.399902
1392.2752	2684.199951
1392.805578	2684.0
1393.335901	2671.399902
1393.866168	2668.800049
1394.396381	2678.0
1394.926537	2668.199951
1395.456639	2661.199951
1395.986685	2647.199951
1396.516675	2660.199951
1397.046611	2661.199951
1397.576491	2665.0
1398.106315	2663.0
1398.636084	2673.399902
1399.165798	2667.800049
1399.695457	2672.600098
1400.22506	2670.800049
1400.754608	2654.600098
1401.284101	2683.0
1401.813538	2649.399902
1402.34292	2676.0
1402.872247	2677.800049
1403.401518	2677.199951
1403.930734	2650.399902
1404.459895	2658.0
1404.989	2687.199951
1405.51805	2671.399902
1406.047045	2658.800049
1406.575984	2690.199951
1407.104869	2653.199951
1407.633697	2668.199951
1408.162471	2636.199951
1408.691189	2643.199951
1409.219852	2658.199951
1409.74846	2665.800049
1410.277013	2678.600098
1410.80551	2644.399902
1411.333952	2629.199951
1411.862339	2635.399902
1412.39067	2633.199951
1412.918946	2654.199951
1413.447167	2636.399902
1413.975333	2643.800049
1414.503444	2648.0
1415.031499	2661.800049
1415.559499	2613.600098
1416.087444	2640.600098
1416.615333	2624.399902
1417.143167	2654.600098
1417.670947	2657.600098
1418.19867	2636.199951
1418.726339	2641.199951
1419.253952	2647.600098
1419.781511	2642.800049
1420.309014	2624.600098
1420.836461	2620.0
1421.363854	2658.199951
1421.891191	2642.800049
1422.418474	2645.0
1422.945701	2632.800049
1423.472872	2640.0
1423.999989	2657.399902
1424.52705	2627.600098
1425.054057	2628.0
1425.581008	2655.800049
1426.107904	2620.800049
1426.634745	2610.199951
1427.16153	2626.399902
1427.688261	2624.199951
1428.214936	2657.399902
1428.741556	2637.0
1429.268121	2636.399902
1429.794631	2650.800049
1430.321085	2640.399902
1430.847485	2632.0
1431.373829	2645.800049
1431.900118	2642.0
1432.426353	2617.399902
1432.952532	2618.800049
1433.478655	2630.800049
1434.004724	2629.399902
1434.530738	2631.800049
1435.056696	2628.399902
1435.5826	2648.800049
1436.108448	2620.600098
1436.634241	2616.399902
1437.159979	2621.399902
1437.685662	2622.600098
1438.21129	2591.600098
1438.736863	2625.199951
1439.262381	2609.399902
1439.787843	2632.199951
1440.313251	2608.800049
1440.838603	2624.199951
1441.3639	2615.399902
1441.889143	2628.800049
1442.41433	2640.399902
1442.939462	2617.199951
1443.464539	2616.0
1443.989561	2612.600098
1444.514528	2620.0
1445.03944	2595.0
1445.564297	2607.800049
1446.089099	2596.0
1446.613846	2605.800049
1447.138537	2605.199951
1447.663174	2616.199951
1448.187756	2612.800049
1448.712282	2620.800049
1449.236754	2613.399902
1449.761171	2613.600098
1450.285532	2605.600098
1450.809839	2594.800049
1451.33409	2599.0
1451.858287	2603.399902
1452.382428	2602.600098
1452.906515	2621.800049
1453.430546	2579.0
1453.954523	2593.600098
1454.478444	2602.600098
1455.002311	2599.800049
1455.526123	2587.199951
1456.049879	2602.399902
1456.573581	2606.600098
1457.097227	2599.800049
1457.620819	2604.800049
1458.144356	2595.399902
1458.667837	2590.600098
1459.191264	2569.800049
1459.714636	2586.199951
1460.237952	2607.600098
1460.761214	2564.600098
1461.284421	2593.800049
1461.807573	2589.0
1462.33067	2583.0
1462.853712	2592.800049
1463.376699	2595.0
1463.899632	2552.600098
1464.422509	2604.600098
1464.945331	2580.0
1465.468099	2596.0
1465.990811	2598.199951
1466.513469	2557.0
1467.036071	2566.600098
1467.558619	2559.399902
1468.081112	2567.600098
1468.60355	2583.800049
1469.125933	2571.199951
1469.648261	2581.399902
1470.170534	2568.600098
1470.692752	2570.0
1471.214916	2569.600098
1471.737024	2547.399902
1472.259078	2571.0
1472.781077	2561.0
1473.303021	2573.199951
1473.82491	2579.399902
1474.346744	2568.800049
1474.868523	2553.399902
1475.390248	2544.399902
1475.911917	2560.399902
1476.433532	2569.600098
1476.955092	2569.399902
1477.476597	2567.0
1477.998047	2556.800049
1478.519442	2551.800049
1479.040783	2536.399902
1479.562068	2563.0
1480.083299	2559.399902
1480.604475	2525.800049
1481.125596	2539.0
1481.646663	2541.0
1482.167674	2529.800049
1482.688631	2557.0
1483.209533	2552.199951
1483.73038	2523.199951
1484.251172	2523.0
1484.771909	2539.600098
1485.292592	2546.399902
1485.81322	2537.0
1486.333793	2543.199951
1486.854311	2556.800049
1487.374775	2545.800049
1487.895183	2530.0
1488.415537	2537.0
1488.935836	2536.0
1489.456081	2523.199951
1489.97627	2526.600098
1490.496405	2503.600098
1491.016485	2546.600098
1491.536511	2537.0
1492.056481	2532.800049
1492.576397	2537.199951
1493.096258	2537.800049
1493.616064	2538.399902
1494.135816	2527.199951
1494.655513	2537.399902
1495.175155	2515.0
1495.694742	2534.0
1496.214274	2504.0
1496.733752	2502.0
1497.253175	2519.600098
1497.772544	2530.600098
1498.291858	2529.0
1498.811116	2549.800049
1499.330321	2503.399902
1499.84947	2543.600098
1500.368565	2520.600098
1500.887605	2534.0
1501.406591	2520.800049
1501.925521	2499.0
1502.444397	2512.0
1502.963219	2505.600098
1503.481985	2519.800049
1504.000697	2515.800049
1504.519355	2520.0
1505.037957	2494.600098
1505.556505	2497.600098
1506.074999	2518.800049
1506.593437	2496.800049
1507.111821	2508.0
1507.63015	2509.600098
1508.148425	2508.600098
1508.666645	2510.600098
1509.18481	2511.199951
1509.702921	2499.0
1510.220977	2497.600098
1510.738979	2517.199951
1511.256925	2498.399902
1511.774817	2504.199951
1512.292655	2502.800049
1512.810438	2511.399902
1513.328166	2522.199951
1513.84584	2483.600098
1514.363459	2500.800049
1514.881023	2540.600098
1515.915988	2500.199951
1516.433389	2469.600098
1516.950734	2495.399902
1517.468026	2491.800049
1517.985263	2501.800049
1518.502445	2494.600098
1519.019572	2511.199951
1519.536645	2494.0
1520.053664	2503.399902
1520.570628	2482.399902
1521.087537	2494.800049
1521.604392	2500.0
1522.121192	2499.800049
1522.637937	2497.399902
1523.154628	2499.0
1523.671265	2511.0
1524.187847	2475.600098
1524.704374	2509.399902
1525.220847	2484.199951
1525.737265	2486.800049
1526.253629	2491.399902
1526.769938	2496.800049
1527.286192	2485.399902
1527.802392	2495.199951
1528.318538	2490.800049
1528.834629	2501.0
1529.350666	2489.0
1529.866648	2485.800049
1530.382575	2492.800049
1530.898448	2479.199951
1531.414266	2489.800049
1531.93003	2477.0
1532.44574	2499.0
1532.961395	2495.800049
1533.476995	2490.800049
1533.992541	2485.800049
1534.508033	2471.399902
1535.02347	2477.0
1535.538852	2483.199951
1536.05418	2494.600098
1536.569454	2482.600098
1537.084673	2494.399902
1537.599837	2490.0
1538.114947	2497.800049
1538.630003	2466.399902
1539.145004	2472.0
1539.659951	2472.0
1540.174843	2485.600098
1540.689681	2476.199951
1541.204465	2479.0
1541.719194	2473.600098
1542.233868	2471.0
1542.748488	2485.800049
1543.263054	2482.0
1543.777565	2483.199951
1544.292022	2466.0
1544.806424	2464.0
1545.320772	2467.199951
1545.835066	2452.399902
1546.349305	2497.0
1546.863489	2486.600098
1547.37762	2482.600098
1547.891696	2476.399902
1548.405717	2482.800049
1548.919684	2478.399902
1549.433597	2486.199951
1549.947455	2474.399902
1550.461259	2491.600098
1550.975009	2469.399902
1551.488704	2488.399902
1552.002345	2503.199951
1552.515931	2455.0
1553.029463	2479.800049
1553.542941	2464.0
1554.056364	2488.199951
1554.569733	2450.0
1555.083048	2465.0
1555.596308	2470.399902
1556.109514	2467.0
1556.622665	2442.0
1557.135762	2448.600098
1557.648805	2495.399902
1558.161794	2477.600098
1558.674728	2471.0
1559.187608	2463.0
1559.700433	2461.199951
1560.213205	2438.399902
1560.725921	2468.800049
1561.238584	2445.199951
1561.751192	2469.800049
1562.263746	2456.800049
1562.776246	2454.399902
1563.288691	2447.199951
1563.801082	2474.399902
1564.313419	2459.600098
1564.825701	2441.399902
1565.337929	2465.0
1565.850103	2449.600098
1566.362223	2465.0
1566.874288	2443.199951
1567.386299	2468.199951
1567.898256	2459.199951
1568.410158	2461.199951
1568.922007	2478.600098
1569.4338	2440.800049
1569.94554	2465.399902
1570.457226	2437.399902
1570.968857	2477.800049
1571.480434	2462.800049
1571.991956	2454.399902
1572.503425	2474.800049
1573.014839	2445.199951
1573.526199	2435.399902
1574.037505	2439.800049
1574.548756	2486.0
1575.059953	2448.600098
1575.571096	2458.0
1576.082185	2434.800049
1576.59322	2489.199951
1577.1042	2453.0
1577.615126	2459.800049
1578.125998	2455.0
1578.636816	2453.600098
1579.14758	2445.800049
1579.658289	2434.399902
1580.168944	2447.0
1580.679545	2426.0
1581.190092	2441.0
1581.700585	2434.399902
1582.211023	2429.600098
1582.721407	2446.600098
1583.231737	2429.199951
1583.742013	2431.600098
1584.252235	2409.399902
1584.762403	2421.800049
1585.272516	2440.800049
1585.782575	2448.399902
1586.292581	2429.600098
1586.802532	2435.0
1587.312428	2411.800049
1587.822271	2445.600098
1588.33206	2436.0
1588.841794	2422.399902
1589.351474	2455.800049
1589.8611	2415.0
1590.370672	2445.399902
1590.88019	2429.0
1591.389654	2459.399902
1591.899064	2428.399902
1592.408419	2447.0
