1043.585098	1345.599976
1044.151424	1371.599976
1044.717692	1349.0
1045.283903	1357.800049
1045.850056	1371.800049
1046.416151	1358.599976
1046.982188	1352.400024
1047.548167	1342.199951
1048.114089	1369.599976
1048.679953	1339.599976
1049.24576	1348.800049
1049.811509	1350.400024
1050.3772	1346.400024
1050.942833	1360.0
1051.508408	1346.599976
1052.073926	1334.800049
1052.639387	1347.400024
1053.204789	1359.400024
1053.770134	1338.400024
1054.335421	1347.0
1054.900651	1353.800049
1055.465823	1349.199951
1056.030937	1345.0
1056.595993	1343.0
1057.160992	1350.800049
1057.725934	1351.199951
1058.290817	1347.199951
1058.855643	1344.599976
1059.420411	1351.400024
1059.985122	1342.800049
1060.549775	1354.800049
1061.114371	1348.199951
1061.678908	1334.599976
1062.243389	1345.599976
1062.807811	1355.800049
1063.372176	1348.400024
1063.936483	1345.400024
1064.500733	1344.0
1065.064925	1353.599976
1065.62906	1347.599976
1066.193137	1352.199951
1066.757156	1338.0
1067.321118	1366.0
1067.885022	1335.400024
1068.448869	1343.0
1069.012658	1348.400024
1069.57639	1352.199951
1070.140063	1345.0
1070.70368	1345.599976
1071.267239	1340.800049
1071.83074	1345.800049
1072.394184	1345.199951
1072.95757	1349.599976
1073.520899	1348.0
1074.08417	1343.800049
1074.647383	1329.400024
1075.21054	1330.199951
1075.773638	1321.599976
1076.336679	1331.400024
1076.899663	1342.0
1077.462589	1344.800049
1078.025457	1339.599976
1078.588268	1346.400024
1079.151022	1336.400024
1079.713718	1348.199951
1080.276356	1333.400024
1080.838937	1334.400024
1081.401461	1335.199951
1081.963927	1348.199951
1082.526336	1337.0
1083.088687	1342.599976
1083.650981	1323.599976
1084.213217	1331.599976
1084.775396	1335.400024
1085.337517	1339.800049
1085.899581	1327.0
1086.461587	1346.199951
1087.023536	1328.599976
1087.585428	1342.0
1088.147262	1325.599976
1088.709039	1337.599976
1089.270758	1325.0
1089.83242	1325.599976
1090.394024	1326.0
1090.955571	1326.199951
1091.517061	1324.199951
1092.078493	1328.400024
1092.639868	1321.400024
1093.201185	1325.0
1093.762445	1331.800049
1094.323648	1340.0
1094.884793	1311.800049
1095.445881	1314.800049
1096.006911	1333.800049
1096.567884	1320.800049
1097.1288	1339.800049
1097.689659	1326.0
1098.25046	1318.199951
1098.811203	1329.800049
1099.37189	1337.199951
1099.932518	1327.599976
1100.49309	1328.400024
1101.053604	1316.400024
1101.614061	1313.800049
1102.174461	1330.0
1102.734803	1321.0
1103.295088	1314.800049
1103.855316	1314.400024
1104.415486	1312.0
1104.975599	1319.400024
1105.535655	1312.800049
1106.095653	1316.400024
1106.655594	1298.400024
1107.215478	1307.599976
1107.775305	1312.800049
1108.335074	1308.800049
1108.894786	1312.599976
1109.45444	1305.400024
1110.014038	1315.0
1110.573578	1313.800049
1111.133061	1314.400024
1111.692486	1312.800049
1112.251854	1320.800049
1112.811165	1321.800049
1113.370419	1301.599976
1113.929616	1305.199951
1114.488755	1306.800049
1115.047837	1306.599976
1115.606862	1303.599976
1116.16583	1322.599976
1116.72474	1313.199951
1117.283593	1307.400024
1117.842389	1300.400024
1118.401128	1324.800049
1118.959809	1316.0
1119.518433	1325.199951
1120.077	1316.0
1120.63551	1311.400024
1121.193963	1311.199951
1121.752358	1288.599976
1122.310697	1310.599976
1122.868978	1296.0
1123.427202	1322.599976
1123.985368	1310.599976
1124.543478	1296.400024
1125.10153	1311.0
1125.659526	1301.599976
1126.217464	1307.400024
1126.775345	1299.400024
1127.333168	1301.199951
1127.890935	1311.800049
1128.448644	1307.400024
1129.006297	1310.400024
1129.563892	1300.400024
1130.12143	1319.800049
1130.678911	1293.199951
1131.236335	1316.599976
1131.793701	1313.199951
1132.351011	1299.599976
1132.908263	1302.599976
1133.465458	1302.0
1134.022597	1303.599976
1134.579678	1305.0
1135.136702	1289.400024
1135.693669	1309.599976
1136.250578	1304.199951
1136.807431	1319.800049
1137.364227	1307.599976
1137.920965	1313.199951
1138.477647	1312.199951
1139.034271	1294.199951
1139.590839	1288.0
1140.147349	1308.599976
1140.703802	1300.599976
1141.260198	1301.800049
1141.816537	1299.800049
1142.37282	1307.199951
1142.929045	1303.400024
1143.485213	1308.599976
1144.041323	1309.199951
1144.597377	1303.0
1145.153374	1313.0
1145.709314	1316.800049
1146.265197	1307.400024
1146.821023	1310.599976
1147.376792	1310.199951
1147.932503	1311.199951
1148.488158	1295.599976
1149.043756	1305.0
1149.599297	1316.0
1150.154781	1313.0
1150.710207	1310.0
1151.265577	1316.599976
1151.82089	1324.0
1152.376146	1306.199951
1152.931345	1319.800049
1153.486487	1292.0
1154.041572	1313.599976
1154.5966	1309.400024
1155.151571	1307.599976
1155.706485	1311.400024
1156.261342	1303.800049
1156.816142	1297.199951
1157.370885	1300.400024
1157.925572	1316.400024
1158.480201	1310.199951
1159.034774	1308.599976
1159.589289	1302.0
1160.143748	1312.199951
1160.698149	1316.800049
1161.252494	1309.800049
1161.806782	1301.800049
1162.361013	1298.199951
1162.915187	1326.199951
1163.469304	1311.0
1164.023364	1312.400024
1164.577368	1303.0
1165.131314	1316.0
1165.685204	1313.400024
1166.239036	1305.199951
1166.792812	1299.400024
1167.346531	1323.0
1167.900193	1317.0
1168.453798	1311.0
1169.007347	1311.0
1169.560838	1320.0
1170.114273	1308.400024
1170.66765	1322.199951
1171.220971	1312.599976
1171.774235	1319.0
1172.327443	1308.400024
1172.880593	1304.599976
1173.433687	1310.199951
1173.986723	1309.0
1174.539703	1308.800049
1175.092626	1313.800049
1175.645493	1307.800049
1176.198302	1307.599976
1176.751055	1314.599976
1177.303751	1312.199951
1177.85639	1311.400024
1178.408972	1318.800049
1178.961498	1301.599976
1179.513966	1299.800049
1180.066378	1304.400024
1180.618733	1310.599976
1181.171032	1301.400024
1181.723273	1294.800049
1182.275458	1304.599976
1182.827586	1320.199951
1183.379657	1311.0
1183.931672	1304.199951
1184.48363	1307.800049
1185.035531	1312.199951
1185.587375	1308.599976
1186.139162	1300.599976
1186.690893	1302.0
1187.242567	1299.0
1187.794184	1301.400024
1188.345745	1314.800049
1188.897249	1305.199951
1189.448696	1297.199951
1190.000086	1314.400024
1190.55142	1302.800049
1191.102697	1303.400024
1191.653918	1315.400024
1192.205081	1306.0
1192.756188	1306.199951
1193.307238	1319.599976
1193.858232	1300.599976
1194.409169	1310.800049
1194.960049	1299.599976
1195.510872	1313.0
1196.061639	1303.599976
1196.612349	1291.599976
1197.163003	1303.599976
1197.713599	1299.199951
1198.264139	1307.800049
1198.814623	1288.0
1199.36505	1292.800049
1199.91542	1307.0
1200.465734	1296.199951
1201.01599	1298.0
1201.566191	1299.400024
1202.116334	1304.400024
1202.666421	1288.199951
1203.216452	1302.800049
1203.766425	1305.400024
1204.316343	1296.0
1204.866203	1299.199951
1205.416007	1286.199951
1205.965754	1305.800049
1206.515445	1299.400024
1207.065079	1295.599976
1207.614657	1312.0
1208.164177	1295.599976
1208.713642	1302.400024
1209.26305	1294.400024
1209.812401	1298.0
1210.361695	1294.599976
1210.910933	1292.599976
1211.460115	1291.0
1212.00924	1296.599976
1212.558308	1290.199951
1213.10732	1290.599976
1213.656275	1288.0
1214.205174	1299.199951
1214.754016	1303.199951
1215.302801	1285.199951
1215.85153	1294.400024
1216.400203	1303.599976
1216.948819	1293.400024
1217.497378	1310.0
1218.045881	1296.800049
1218.594327	1300.800049
1219.142717	1297.199951
1219.691051	1302.400024
1220.239327	1300.599976
1220.787548	1289.800049
1221.335712	1297.400024
1221.883819	1310.800049
1222.43187	1301.400024
1222.979864	1297.800049
1223.527802	1281.400024
1224.075683	1293.199951
1224.623508	1293.400024
1225.171277	1296.400024
1225.718989	1299.199951
1226.266644	1287.599976
1226.814243	1284.0
1227.361786	1288.0
1227.909272	1282.599976
1228.456702	1279.199951
1229.004075	1300.800049
1229.551392	1308.800049
1230.098652	1283.400024
1230.645856	1289.599976
1231.193003	1299.800049
1231.740094	1295.0
1232.287129	1294.0
1232.834107	1289.599976
1233.381029	1293.800049
1233.927894	1286.199951
1234.474703	1283.800049
1235.021455	1287.599976
1235.568151	1301.0
1236.114791	1292.599976
1236.661374	1296.599976
1237.207901	1292.199951
1237.754372	1296.0
1238.300786	1293.599976
1238.847144	1295.0
1239.393445	1293.599976
1239.93969	1288.0
1240.485879	1295.400024
1241.032011	1293.400024
1241.578087	1278.599976
1242.124106	1295.400024
1242.67007	1294.599976
1243.215976	1298.0
1243.761827	1291.400024
1244.307621	1283.400024
1244.853359	1288.800049
1245.39904	1288.199951
1245.944665	1283.199951
1246.490234	1296.599976
1247.035746	1283.599976
1247.581203	1271.400024
1248.126602	1285.199951
1248.671946	1290.0
1249.217233	1291.400024
1249.762464	1288.599976
1250.307638	1295.800049
1250.852757	1279.800049
1251.397819	1297.400024
1251.942824	1277.400024
1252.487774	1286.800049
1253.032667	1283.199951
1253.577503	1269.199951
1254.122284	1284.0
1254.667008	1293.800049
1255.211676	1283.800049
1255.756288	1285.400024
1256.300843	1286.400024
1256.845342	1292.199951
1257.389785	1281.0
1257.934172	1295.599976
1258.478502	1279.400024
1259.022776	1271.800049
1259.566994	1291.400024
1260.111156	1296.599976
1260.655261	1281.400024
1261.199311	1299.400024
1261.743304	1295.0
1262.28724	1287.800049
1262.831121	1285.400024
1263.374945	1304.400024
1263.918713	1299.599976
1264.462425	1290.400024
1265.006081	1316.599976
1265.54968	1323.800049
1266.093223	1310.800049
1266.636711	1296.599976
1267.180141	1298.800049
1267.723516	1284.400024
1268.266835	1286.199951
1268.810097	1294.800049
1269.353303	1284.800049
1269.896453	1273.199951
1270.439547	1281.0
1270.982584	1278.800049
1271.525566	1292.599976
1272.068491	1282.400024
1272.61136	1286.400024
1273.154173	1290.0
1273.69693	1289.199951
1274.239631	1273.800049
1274.782275	1293.0
1275.324864	1285.599976
1275.867396	1275.599976
1276.409872	1283.599976
1276.952292	1286.0
1277.494656	1271.599976
1278.036964	1276.0
1278.579215	1278.199951
1279.121411	1284.599976
1279.66355	1277.599976
1280.205634	1275.599976
1280.747661	1277.0
1281.289632	1272.400024
1281.831547	1290.0
1282.373406	1275.599976
1282.915209	1283.199951
1283.456955	1282.0
1283.998646	1302.400024
1284.540281	1359.400024
1285.081859	1562.400024
1285.623381	1859.599976
1286.164848	1542.800049
1286.706258	1326.800049
1287.247612	1294.599976
1287.788911	1293.599976
1288.330153	1292.800049
1288.871339	1291.0
1289.412469	1286.800049
1289.953543	1285.199951
1290.494561	1275.599976
1291.035523	1273.0
1291.576428	1276.199951
1292.117278	1274.400024
1292.658072	1277.0
1293.19881	1289.0
1293.739492	1275.400024
1294.280118	1278.400024
1294.820687	1287.199951
1295.361201	1272.400024
1295.901659	1282.400024
1296.442061	1278.599976
1296.982406	1276.400024
1297.522696	1274.800049
1298.06293	1272.400024
1298.603108	1278.0
1299.143229	1275.0
1299.683295	1280.199951
1300.223305	1277.599976
1300.763259	1289.599976
1301.303157	1273.599976
1301.842999	1273.599976
1302.382785	1273.400024
1302.922515	1279.400024
1303.462189	1274.199951
1304.001807	1280.400024
1304.541369	1276.0
1305.080875	1270.800049
1305.620326	1284.800049
1306.15972	1264.400024
1306.699058	1274.0
1307.238341	1273.199951
1307.777567	1275.0
1308.316738	1302.0
1308.855853	1281.599976
1309.394912	1280.400024
1309.933915	1271.400024
1310.472862	1272.199951
1311.011753	1284.0
1311.550588	1259.800049
1312.089367	1276.199951
1312.62809	1259.199951
1313.166758	1279.199951
1313.70537	1267.599976
1314.243925	1272.0
1314.782425	1269.0
1315.320869	1271.199951
1315.859257	1286.199951
1316.397589	1281.400024
1316.935866	1262.0
1317.474086	1275.800049
1318.012251	1280.0
1318.55036	1263.599976
1319.088413	1277.400024
1319.62641	1277.599976
1320.164351	1268.800049
1320.702236	1262.199951
1321.240066	1277.0
1321.777839	1269.599976
1322.315557	1262.800049
1322.853219	1291.0
1323.390826	1278.0
1323.928376	1264.599976
1324.465871	1270.599976
1325.003309	1254.0
1325.540692	1265.199951
1326.07802	1271.0
1326.615291	1266.400024
1327.152506	1263.599976
1327.689666	1272.400024
1328.22677	1269.400024
1328.763818	1275.199951
1329.300811	1273.599976
1329.837747	1270.0
1330.374628	1278.800049
1330.911453	1269.400024
1331.448222	1283.0
1331.984936	1269.800049
1332.521594	1276.599976
1333.058196	1267.0
1333.594742	1274.599976
1334.131232	1265.800049
1334.667667	1276.599976
1335.204046	1258.199951
1335.740369	1277.800049
1336.276637	1264.400024
1336.812848	1274.400024
1337.349004	1273.0
1337.885105	1274.400024
1338.421149	1286.800049
1338.957138	1266.400024
1339.493071	1266.0
1340.028949	1264.0
1340.56477	1275.0
1341.100536	1266.199951
1341.636246	1261.400024
1342.171901	1272.800049
1342.7075	1269.800049
1343.243043	1255.199951
1343.77853	1261.400024
1344.313962	1249.199951
1344.849338	1270.0
1345.384659	1258.0
1345.919923	1243.400024
1346.455133	1257.599976
1346.990286	1263.800049
1347.525384	1265.199951
1348.060426	1272.400024
1348.595412	1276.199951
1349.130343	1267.0
1349.665218	1259.599976
1350.200037	1281.800049
1350.734801	1270.599976
1351.269509	1260.599976
1351.804162	1256.599976
1352.338758	1254.800049
1352.8733	1269.0
1353.407785	1265.800049
1353.942215	1263.800049
1354.476589	1262.599976
1355.010908	1259.800049
1355.545171	1262.800049
1356.079379	1274.199951
1356.61353	1254.599976
1357.147627	1258.0
1357.681667	1262.599976
1358.215652	1263.199951
1358.749582	1269.199951
1359.283456	1264.800049
1359.817274	1262.199951
1360.351037	1260.599976
1360.884744	1273.800049
1361.418395	1252.400024
1361.951991	1244.0
1362.485531	1261.599976
1363.019016	1266.800049
1363.552445	1265.400024
1364.085819	1257.0
1364.619137	1267.599976
1365.1524	1250.599976
1365.685607	1254.0
1366.218758	1264.599976
1366.751854	1262.599976
1367.284894	1263.0
1367.817879	1257.400024
1368.350808	1248.400024
1368.883682	1262.199951
1369.4165	1267.800049
1369.949263	1268.0
1370.48197	1273.400024
1371.014622	1267.199951
1371.547218	1264.400024
1372.079758	1265.400024
1372.612244	1251.0
1373.144673	1268.0
1373.677047	1259.0
1374.209366	1260.400024
1374.741629	1248.400024
1375.273836	1249.199951
1375.805989	1249.400024
1376.338085	1251.800049
1376.870126	1260.400024
1377.402112	1264.400024
1377.934042	1253.400024
1378.465917	1256.400024
1378.997736	1250.800049
1379.5295	1267.199951
1380.061208	1257.199951
1380.592861	1258.400024
1381.124459	1267.599976
1381.656	1249.199951
1382.187487	1255.400024
1382.718918	1242.0
1383.250294	1242.0
1383.781614	1253.400024
1384.312879	1268.800049
1384.844088	1256.0
1385.375242	1249.800049
1385.90634	1257.0
1386.437383	1276.0
1386.968371	1276.199951
1387.499303	1286.800049
1388.03018	1404.199951
1388.561001	2038.599976
1389.091767	2069.399902
1389.622478	1415.400024
1390.153133	1298.0
1390.683733	1268.199951
1391.214277	1272.400024
1391.744766	1247.400024
1392.2752	1251.0
1392.805578	1245.599976
1393.335901	1263.199951
1393.866168	1244.599976
1394.396381	1261.199951
1394.926537	1265.199951
1395.456639	1266.400024
1395.986685	1252.800049
1396.516675	1241.0
1397.046611	1257.800049
1397.576491	1253.599976
1398.106315	1254.800049
1398.636084	1253.800049
1399.165798	1250.599976
1399.695457	1253.0
1400.22506	1247.800049
1400.754608	1245.800049
1401.284101	1252.0
1401.813538	1245.599976
1402.34292	1246.0
1402.872247	1255.400024
1403.401518	1251.800049
1403.930734	1246.599976
1404.459895	1255.199951
1404.989	1246.0
1405.51805	1248.400024
1406.047045	1252.0
1406.575984	1243.800049
1407.104869	1265.800049
1407.633697	1253.400024
1408.162471	1258.599976
1408.691189	1254.599976
1409.219852	1267.199951
1409.74846	1287.0
1410.277013	1331.800049
1410.80551	1275.400024
1411.333952	1263.0
1411.862339	1247.199951
1412.39067	1248.0
1412.918946	1254.800049
1413.447167	1245.0
1413.975333	1245.0
1414.503444	1239.0
1415.031499	1246.800049
1415.559499	1260.400024
1416.087444	1256.199951
1416.615333	1257.400024
1417.143167	1243.400024
1417.670947	1256.199951
1418.19867	1258.0
1418.726339	1246.599976
1419.253952	1255.400024
1419.781511	1252.0
1420.309014	1263.0
1420.836461	1242.400024
1421.363854	1251.800049
1421.891191	1246.599976
1422.418474	1250.800049
1422.945701	1249.0
1423.472872	1245.599976
1423.999989	1250.800049
1424.52705	1244.199951
1425.054057	1254.400024
1425.581008	1253.800049
1426.107904	1252.400024
1426.634745	1257.400024
1427.16153	1254.0
1427.688261	1256.599976
1428.214936	1242.400024
1428.741556	1235.599976
1429.268121	1237.0
1429.794631	1241.800049
1430.321085	1252.0
1430.847485	1239.199951
1431.373829	1250.0
1431.900118	1240.199951
1432.426353	1238.0
1432.952532	1251.800049
1433.478655	1249.199951
1434.004724	1240.199951
1434.530738	1240.599976
1435.056696	1247.599976
1435.5826	1246.800049
1436.108448	1235.599976
1436.634241	1242.800049
1437.159979	1244.800049
1437.685662	1237.400024
1438.21129	1252.199951
1438.736863	1249.599976
1439.262381	1252.0
1439.787843	1239.199951
1440.313251	1241.199951
1440.838603	1245.400024
1441.3639	1248.199951
1441.889143	1245.0
1442.41433	1247.400024
1442.939462	1239.800049
1443.464539	1248.199951
1443.989561	1241.400024
1444.514528	1244.0
1445.03944	1237.400024
1445.564297	1238.0
1446.089099	1248.800049
1446.613846	1236.599976
1447.138537	1249.199951
1447.663174	1258.400024
1448.187756	1244.199951
1448.712282	1244.400024
1449.236754	1232.800049
1449.761171	1245.400024
1450.285532	1227.400024
1450.809839	1242.199951
1451.33409	1249.800049
1451.858287	1239.0
1452.382428	1245.0
1452.906515	1237.0
1453.430546	1238.800049
1453.954523	1222.199951
1454.478444	1241.599976
1455.002311	1238.599976
1455.526123	1235.400024
1456.049879	1237.0
1456.573581	1232.400024
1457.097227	1247.0
1457.620819	1227.599976
1458.144356	1251.800049
1458.667837	1236.800049
1459.191264	1231.0
1459.714636	1235.0
1460.237952	1230.800049
1460.761214	1232.199951
1461.284421	1246.800049
1461.807573	1240.800049
1462.33067	1243.800049
1462.853712	1235.800049
1463.376699	1229.0
1463.899632	1233.800049
1464.422509	1236.199951
1464.945331	1221.199951
1465.468099	1232.800049
1465.990811	1230.0
1466.513469	1231.400024
1467.036071	1232.199951
1467.558619	1230.400024
1468.081112	1238.599976
1468.60355	1245.199951
1469.125933	1248.400024
1469.648261	1229.0
1470.170534	1233.199951
1470.692752	1229.800049
1471.214916	1238.0
1471.737024	1227.199951
1472.259078	1232.0
1472.781077	1225.400024
1473.303021	1229.0
1473.82491	1228.199951
1474.346744	1242.400024
1474.868523	1226.199951
1475.390248	1225.0
1475.911917	1234.0
1476.433532	1235.400024
1476.955092	1227.400024
1477.476597	1242.400024
1477.998047	1215.0
1478.519442	1218.800049
1479.040783	1219.800049
1479.562068	1231.800049
1480.083299	1228.0
1480.604475	1227.0
1481.125596	1233.0
1481.646663	1210.599976
1482.167674	1230.199951
1482.688631	1236.199951
1483.209533	1225.0
1483.73038	1235.400024
1484.251172	1227.400024
1484.771909	1237.199951
1485.292592	1236.0
1485.81322	1229.800049
1486.333793	1228.800049
1486.854311	1229.199951
1487.374775	1218.599976
1487.895183	1232.0
1488.415537	1236.800049
1488.935836	1227.400024
1489.456081	1227.599976
1489.97627	1236.400024
1490.496405	1235.199951
1491.016485	1226.800049
1491.536511	1233.400024
1492.056481	1225.800049
1492.576397	1230.400024
1493.096258	1219.599976
1493.616064	1228.0
1494.135816	1216.400024
1494.655513	1227.0
1495.175155	1231.599976
1495.694742	1224.400024
1496.214274	1209.199951
1496.733752	1226.800049
1497.253175	1230.599976
1497.772544	1221.800049
1498.291858	1222.800049
1498.811116	1238.800049
1499.330321	1226.0
1499.84947	1238.0
1500.368565	1231.800049
1500.887605	1221.400024
1501.406591	1214.599976
1501.925521	1229.199951
1502.444397	1215.599976
1502.963219	1225.400024
1503.481985	1227.0
1504.000697	1222.599976
1504.519355	1217.400024
1505.037957	1220.199951
1505.556505	1227.199951
1506.074999	1215.599976
1506.593437	1231.0
1507.111821	1222.599976
1507.63015	1215.199951
1508.148425	1212.800049
1508.666645	1207.599976
1509.18481	1215.800049
1509.702921	1215.199951
1510.220977	1219.400024
1510.738979	1229.599976
1511.256925	1228.800049
1511.774817	1235.599976
1512.292655	1222.199951
1512.810438	1218.199951
1513.328166	1233.800049
1513.84584	1227.199951
1514.363459	1221.199951
1514.881023	1228.199951
1515.398533	1213.199951
1515.915988	1214.599976
1516.433389	1216.400024
1516.950734	1221.400024
1517.468026	1224.0
1517.985263	1233.0
1518.502445	1225.0
1519.019572	1221.599976
1519.536645	1220.199951
1520.053664	1223.800049
1520.570628	1222.800049
1521.087537	1214.0
1521.604392	1233.800049
1522.121192	1215.599976
1522.637937	1214.599976
1523.154628	1215.0
1523.671265	1224.199951
1524.187847	1219.199951
1524.704374	1219.199951
1525.220847	1215.800049
1525.737265	1221.400024
1526.253629	1237.0
1526.769938	1220.800049
1527.286192	1223.400024
1527.802392	1213.599976
1528.318538	1220.199951
1528.834629	1218.800049
1529.350666	1228.0
1529.866648	1222.599976
1530.382575	1213.0
1530.898448	1212.0
1531.414266	1221.0
1531.93003	1218.800049
1532.44574	1225.0
1532.961395	1215.199951
1533.476995	1220.400024
1533.992541	1223.800049
1534.508033	1224.400024
1535.02347	1227.800049
1535.538852	1227.800049
1536.05418	1226.400024
1536.569454	1207.199951
1537.084673	1236.400024
1537.599837	1227.800049
1538.114947	1237.800049
1538.630003	1218.400024
1539.145004	1219.199951
1539.659951	1213.800049
1540.174843	1218.800049
1540.689681	1220.800049
1541.204465	1223.199951
1541.719194	1224.199951
1542.233868	1219.800049
1542.748488	1224.0
1543.263054	1228.400024
1543.777565	1228.800049
1544.292022	1213.599976
1544.806424	1223.800049
1545.320772	1219.800049
1545.835066	1230.800049
1546.349305	1226.400024
1546.863489	1212.199951
1547.37762	1237.599976
1547.891696	1216.0
1548.405717	1219.0
1548.919684	1224.800049
1549.433597	1224.599976
1549.947455	1226.0
1550.461259	1224.800049
1550.975009	1217.599976
1551.488704	1217.599976
1552.002345	1224.199951
1552.515931	1229.199951
1553.029463	1231.800049
1553.542941	1219.0
1554.056364	1227.0
1554.569733	1228.599976
1555.083048	1231.0
1555.596308	1222.400024
1556.109514	1232.599976
1556.622665	1229.0
1557.135762	1227.199951
1557.648805	1225.0
1558.161794	1224.800049
1558.674728	1222.0
1559.187608	1222.599976
1559.700433	1226.800049
1560.213205	1212.400024
1560.725921	1232.400024
1561.238584	1230.599976
1561.751192	1226.800049
1562.263746	1211.599976
1562.776246	1225.199951
1563.288691	1229.400024
1563.801082	1218.800049
1564.313419	1230.400024
1564.825701	1220.800049
1565.337929	1242.800049
1565.850103	1225.0
1566.362223	1219.199951
1566.874288	1226.800049
1567.386299	1241.800049
1567.898256	1222.400024
1568.410158	1217.400024
1568.922007	1232.400024
1569.4338	1214.0
1569.94554	1223.400024
1570.457226	1223.800049
1570.968857	1235.400024
1571.480434	1228.400024
1571.991956	1215.800049
1572.503425	1221.599976
1573.014839	1223.0
1573.526199	1224.400024
1574.037505	1234.199951
1574.548756	1235.599976
1575.059953	1219.800049
1575.571096	1223.599976
1576.082185	1222.0
1576.59322	1226.0
1577.1042	1227.199951
1577.615126	1227.599976
1578.125998	1223.400024
1578.636816	1217.800049
1579.14758	1227.800049
1579.658289	1219.0
1580.168944	1233.400024
1580.679545	1219.0
1581.190092	1212.199951
1581.700585	1212.800049
1582.211023	1211.400024
1582.721407	1214.0
1583.231737	1214.599976
1583.742013	1229.0
1584.252235	1221.400024
1584.762403	1229.0
1585.272516	1221.599976
1585.782575	1213.800049
1586.292581	1212.199951
1586.802532	1223.199951
1587.312428	1224.199951
1587.822271	1222.800049
1588.33206	1222.400024
1588.841794	1230.599976
1589.351474	1220.599976
1589.8611	1227.800049
1590.370672	1224.0
1590.88019	1238.400024
1591.389654	1221.400024
1591.899064	1209.400024
1592.408419	1215.599976
