1043.018714	725.0
1043.585098	735.4000244
1044.151424	731.4000244
1044.717692	731.2000122
1045.283903	734.2000122
1045.850056	729.2000122
1046.416151	729.0
1046.982188	728.5999756
1047.548167	729.5999756
1048.114089	728.2000122
1048.679953	728.4000244
1049.24576	731.4000244
1049.811509	724.5999756
1050.3772	729.4000244
1050.942833	730.0
1051.508408	728.5999756
1052.073926	726.4000244
1052.639387	724.5999756
1053.204789	726.7999878
1053.770134	725.2000122
1054.335421	724.4000244
1054.900651	731.0
1055.465823	721.5999756
1056.030937	722.2000122
1056.595993	722.7999878
1057.160992	723.2000122
1057.725934	720.0
1058.290817	724.7999878
1058.855643	723.2000122
1059.420411	722.4000244
1059.985122	724.0
1060.549775	723.5999756
1061.114371	722.4000244
1061.678908	722.7999878
1062.243389	722.7999878
1062.807811	723.5999756
1063.372176	725.7999878
1063.936483	728.0
1064.500733	722.7999878
1065.064925	717.2000122
1065.62906	720.4000244
1066.193137	728.0
1066.757156	719.5999756
1067.321118	719.5999756
1067.885022	723.0
1068.448869	723.0
1069.012658	719.4000244
1069.57639	718.7999878
1070.140063	725.4000244
1070.70368	723.2000122
1071.267239	722.7999878
1071.83074	725.7999878
1072.394184	718.2000122
1072.95757	720.7999878
1073.520899	720.7999878
1074.08417	722.5999756
1074.647383	720.4000244
1075.21054	721.7999878
1075.773638	718.5999756
1076.336679	722.4000244
1076.899663	721.5999756
1077.462589	727.2000122
1078.025457	719.4000244
1078.588268	721.2000122
1079.151022	718.2000122
1079.713718	720.2000122
1080.276356	719.4000244
1080.838937	721.5999756
1081.401461	715.4000244
1081.963927	724.0
1082.526336	716.5999756
1083.088687	716.7999878
1083.650981	719.7999878
1084.213217	720.2000122
1084.775396	721.7999878
1085.337517	722.5999756
1085.899581	716.7999878
1086.461587	723.7999878
1087.023536	722.5999756
1087.585428	718.2000122
1088.147262	718.5999756
1088.709039	722.2000122
1089.270758	721.4000244
1089.83242	717.7999878
1090.394024	718.5999756
1090.955571	718.0
1091.517061	721.0
1092.078493	723.4000244
1092.639868	718.0
1093.201185	719.5999756
1093.762445	715.2000122
1094.323648	716.2000122
1094.884793	717.4000244
1095.445881	718.2000122
1096.006911	714.4000244
1096.567884	717.2000122
1097.1288	725.5999756
1097.689659	716.5999756
1098.25046	718.2000122
1098.811203	711.4000244
1099.37189	718.0
1099.932518	720.0
1100.49309	720.2000122
1101.053604	716.5999756
1101.614061	717.4000244
1102.174461	716.5999756
1102.734803	716.7999878
1103.295088	715.2000122
1103.855316	716.5999756
1104.415486	715.4000244
1104.975599	718.0
1105.535655	719.2000122
1106.095653	719.4000244
1106.655594	718.0
1107.215478	716.4000244
1107.775305	718.5999756
1108.335074	718.7999878
1108.894786	712.4000244
1109.45444	718.0
1110.014038	717.4000244
1110.573578	711.5999756
1111.133061	717.2000122
1111.692486	716.4000244
1112.251854	717.7999878
1112.811165	717.4000244
1113.370419	716.5999756
1113.929616	712.2000122
1114.488755	716.7999878
1115.047837	720.2000122
1115.606862	713.7999878
1116.16583	710.7999878
1116.72474	713.4000244
1117.283593	716.5999756
1117.842389	720.4000244
1118.401128	716.4000244
1118.959809	713.2000122
1119.518433	719.2000122
1120.077	713.5999756
1120.63551	714.0
1121.193963	717.2000122
1121.752358	715.2000122
1122.310697	715.2000122
1122.868978	713.4000244
1123.427202	713.2000122
1123.985368	718.2000122
1124.543478	713.5999756
1125.10153	720.7999878
1125.659526	714.2000122
1126.217464	713.0
1126.775345	712.7999878
1127.333168	716.2000122
1127.890935	714.4000244
1128.448644	713.7999878
1129.006297	710.0
1129.563892	717.0
1130.12143	714.0
1130.678911	716.4000244
1131.236335	717.2000122
1131.793701	716.0
1132.351011	715.4000244
1132.908263	712.5999756
1133.465458	712.0
1134.022597	714.2000122
1134.579678	719.2000122
1135.136702	719.2000122
1135.693669	709.5999756
1136.250578	714.7999878
1136.807431	710.4000244
1137.364227	717.5999756
1137.920965	715.2000122
1138.477647	711.0
1139.034271	716.2000122
1139.590839	714.0
1140.147349	712.5999756
1140.703802	714.5999756
1141.260198	716.7999878
1141.816537	718.7999878
1142.37282	714.5999756
1142.929045	713.4000244
1143.485213	716.2000122
1144.041323	715.4000244
1144.597377	715.2000122
1145.153374	713.5999756
1145.709314	714.4000244
1146.265197	718.5999756
1146.821023	716.2000122
1147.376792	711.2000122
1147.932503	712.0
1148.488158	712.5999756
1149.043756	711.2000122
1149.599297	711.0
1150.154781	715.0
1150.710207	711.5999756
1151.265577	715.4000244
1151.82089	716.0
1152.376146	713.5999756
1152.931345	713.5999756
1153.486487	714.5999756
1154.041572	712.4000244
1154.5966	715.7999878
1155.151571	715.7999878
1155.706485	713.2000122
1156.261342	714.7999878
1156.816142	711.2000122
1157.370885	713.2000122
1157.925572	716.7999878
1158.480201	717.5999756
1159.034774	712.0
1159.589289	714.7999878
1160.143748	717.2000122
1160.698149	715.4000244
1161.252494	713.5999756
1161.806782	717.7999878
1162.361013	717.4000244
1162.915187	714.7999878
1163.469304	712.4000244
1164.023364	711.2000122
1164.577368	713.0
1165.131314	708.4000244
1165.685204	717.7999878
1166.239036	717.5999756
1166.792812	718.2000122
1167.346531	715.7999878
1167.900193	710.2000122
1168.453798	712.7999878
1169.007347	710.7999878
1169.560838	714.4000244
1170.114273	714.2000122
1170.66765	710.5999756
1171.220971	709.5999756
1171.774235	713.4000244
1172.327443	711.7999878
1172.880593	714.0
1173.433687	712.2000122
1173.986723	719.2000122
1174.539703	713.5999756
1175.092626	710.0
1175.645493	715.5999756
1176.198302	713.4000244
1176.751055	711.0
1177.303751	714.7999878
1177.85639	715.7999878
1178.408972	714.2000122
1178.961498	711.0
1179.513966	713.0
1180.066378	710.7999878
1180.618733	715.0
1181.171032	711.0
1181.723273	708.4000244
1182.275458	714.4000244
1182.827586	715.0
1183.379657	711.4000244
1183.931672	710.2000122
1184.48363	713.0
1185.035531	712.0
1185.587375	709.7999878
1186.139162	707.7999878
1186.690893	710.2000122
1187.242567	716.4000244
1187.794184	712.2000122
1188.345745	715.2000122
1188.897249	712.4000244
1189.448696	712.2000122
1190.000086	714.4000244
1190.55142	713.4000244
1191.102697	711.2000122
1191.653918	707.7999878
1192.205081	711.0
1192.756188	709.4000244
1193.858232	710.4000244
1194.409169	708.7999878
1194.960049	713.7999878
1195.510872	710.7999878
1196.061639	710.2000122
1196.612349	709.2000122
1197.163003	711.4000244
1197.713599	712.4000244
1198.264139	711.5999756
1198.814623	711.5999756
1199.36505	713.2000122
1199.91542	706.5999756
1200.465734	710.4000244
1201.01599	712.7999878
1201.566191	710.4000244
1202.116334	713.2000122
1202.666421	713.2000122
1203.216452	710.7999878
1203.766425	708.0
1204.316343	707.4000244
1204.866203	711.2000122
1205.416007	709.5999756
1205.965754	713.4000244
1206.515445	713.0
1207.065079	708.5999756
1207.614657	712.5999756
1208.164177	712.0
1208.713642	709.0
1209.26305	708.7999878
1209.812401	709.2000122
1210.361695	711.4000244
1210.910933	710.7999878
1211.460115	710.5999756
1212.00924	715.0
1212.558308	705.4000244
1213.10732	710.2000122
1213.656275	710.2000122
1214.205174	712.7999878
1214.754016	711.4000244
1215.302801	711.5999756
1215.85153	710.2000122
1216.400203	711.2000122
1216.948819	711.5999756
1217.497378	713.7999878
1218.045881	710.0
1218.594327	712.5999756
1219.142717	711.0
1219.691051	706.2000122
1220.239327	713.7999878
1220.787548	709.5999756
1221.335712	712.4000244
1221.883819	710.4000244
1222.43187	713.0
1222.979864	710.2000122
1223.527802	715.5999756
1224.075683	708.7999878
1224.623508	706.7999878
1225.171277	712.5999756
1225.718989	707.2000122
1226.266644	708.0
1226.814243	706.7999878
1227.361786	710.7999878
1227.909272	710.0
1228.456702	707.2000122
1229.004075	711.4000244
1229.551392	709.2000122
1230.098652	710.2000122
1230.645856	710.0
1231.193003	712.7999878
1231.740094	714.2000122
1232.287129	707.0
1232.834107	709.5999756
1233.381029	710.5999756
1233.927894	714.0
1234.474703	711.0
1235.021455	710.0
1235.568151	711.2000122
1236.114791	709.2000122
1236.661374	713.7999878
1237.207901	708.4000244
1237.754372	711.5999756
1238.300786	710.0
1238.847144	712.7999878
1239.393445	712.2000122
1239.93969	712.0
1240.485879	711.2000122
1241.032011	712.0
1241.578087	707.4000244
1242.124106	712.7999878
1242.67007	709.5999756
1243.215976	709.7999878
1243.761827	712.7999878
1244.307621	715.4000244
1244.853359	719.0
1245.39904	714.2000122
1245.944665	709.5999756
1246.490234	711.7999878
1247.035746	718.0
1247.581203	714.4000244
1248.126602	714.5999756
1248.671946	715.2000122
1249.217233	716.2000122
1249.762464	709.0
1250.307638	718.2000122
1250.852757	715.4000244
1251.397819	716.2000122
1251.942824	708.4000244
1252.487774	713.5999756
1253.032667	715.4000244
1253.577503	711.4000244
1254.122284	709.5999756
1254.667008	719.2000122
1255.211676	715.7999878
1255.756288	711.5999756
1256.300843	713.0
1256.845342	713.0
1257.389785	711.5999756
1257.934172	718.0
1258.478502	716.7999878
1259.022776	726.0
1259.566994	713.0
1260.111156	725.2000122
1260.655261	713.2000122
1261.199311	724.5999756
1261.743304	722.7999878
1262.28724	725.4000244
1262.831121	728.0
1263.374945	745.2000122
1263.918713	749.7999878
1264.462425	760.0
1265.006081	757.2000122
1265.54968	743.2000122
1266.093223	726.5999756
1266.636711	720.7999878
1267.180141	718.7999878
1267.723516	716.5999756
1268.266835	718.4000244
1268.810097	711.4000244
1269.353303	715.7999878
1269.896453	710.4000244
1270.439547	722.4000244
1270.982584	717.4000244
1271.525566	717.0
1272.068491	715.2000122
1272.61136	711.5999756
1273.154173	711.2000122
1273.69693	713.0
1274.239631	714.2000122
1274.782275	708.4000244
1275.324864	718.5999756
1275.867396	714.7999878
1276.409872	718.7999878
1276.952292	717.7999878
1277.494656	720.0
1278.036964	723.4000244
1278.579215	722.0
1279.121411	714.4000244
1279.66355	720.5999756
1280.205634	725.5999756
1280.747661	730.2000122
1281.289632	737.2000122
1281.831547	752.4000244
1282.373406	779.4000244
1282.915209	839.4000244
1283.456955	966.7999878
1283.998646	1214.0
1284.540281	1461.400024
1285.081859	1304.400024
1285.623381	968.0
1286.164848	810.2000122
1286.706258	760.7999878
1287.247612	742.4000244
1287.788911	728.7999878
1288.330153	731.0
1288.871339	723.0
1289.412469	723.0
1289.953543	719.4000244
1290.494561	722.2000122
1291.035523	716.4000244
1291.576428	714.0
1292.117278	715.0
1292.658072	717.2000122
1293.19881	712.2000122
1293.739492	721.0
1294.280118	714.4000244
1294.820687	716.0
1295.361201	711.4000244
1295.901659	708.7999878
1296.442061	714.7999878
1296.982406	715.7999878
1297.522696	710.2000122
1298.06293	711.5999756
1298.603108	713.7999878
1299.143229	711.5999756
1299.683295	710.5999756
1300.223305	707.7999878
1300.763259	710.0
1301.303157	710.4000244
1301.842999	709.4000244
1302.382785	712.5999756
1302.922515	712.2000122
1303.462189	711.2000122
1304.001807	713.2000122
1304.541369	707.2000122
1305.080875	710.0
1305.620326	709.4000244
1306.15972	707.7999878
1306.699058	715.7999878
1307.238341	714.4000244
1307.777567	709.4000244
1308.316738	710.5999756
1308.855853	711.0
1309.394912	708.4000244
1309.933915	711.5999756
1310.472862	710.2000122
1311.011753	708.4000244
1311.550588	710.7999878
1312.089367	709.5999756
1312.62809	709.2000122
1313.166758	707.0
1313.70537	707.7999878
1314.243925	708.4000244
1314.782425	706.0
1315.320869	707.0
1315.859257	709.4000244
1316.397589	713.2000122
1316.935866	709.4000244
1317.474086	706.2000122
1318.012251	707.4000244
1318.55036	708.5999756
1319.088413	710.0
1319.62641	706.2000122
1320.164351	708.2000122
1320.702236	711.2000122
1321.240066	711.5999756
1321.777839	708.0
1322.315557	708.2000122
1322.853219	706.5999756
1323.390826	708.2000122
1323.928376	711.2000122
1324.465871	709.2000122
1325.003309	710.4000244
1325.540692	706.0
1326.07802	708.7999878
1326.615291	712.5999756
1327.152506	707.7999878
1327.689666	709.4000244
1328.22677	705.4000244
1328.763818	707.2000122
1329.300811	707.5999756
1329.837747	710.7999878
1330.374628	706.0
1330.911453	708.7999878
1331.448222	707.7999878
1331.984936	706.5999756
1332.521594	708.7999878
1333.058196	705.7999878
1333.594742	711.0
1334.131232	708.2000122
1334.667667	708.4000244
1335.204046	707.2000122
1335.740369	707.0
1336.276637	707.4000244
1336.812848	704.5999756
1337.349004	711.0
1337.885105	704.2000122
1338.421149	704.5999756
1338.957138	708.4000244
1339.493071	703.2000122
1340.028949	705.7999878
1340.56477	708.7999878
1341.100536	707.2000122
1341.636246	708.7999878
1342.171901	704.2000122
1342.7075	713.4000244
1343.243043	708.0
1343.77853	709.0
1344.313962	706.2000122
1344.849338	707.2000122
1345.384659	709.7999878
1345.919923	706.7999878
1346.455133	705.4000244
1346.990286	705.5999756
1347.525384	706.2000122
1348.060426	704.4000244
1348.595412	708.4000244
1349.130343	709.0
1349.665218	712.2000122
1350.200037	706.0
1350.734801	710.4000244
1351.269509	707.5999756
1351.804162	706.2000122
1352.338758	708.7999878
1352.8733	711.0
1353.407785	711.4000244
1353.942215	707.4000244
1354.476589	706.2000122
1355.010908	711.0
1355.545171	704.0
1356.079379	706.7999878
1356.61353	705.5999756
1357.147627	710.5999756
1357.681667	706.7999878
1358.215652	705.2000122
1358.749582	711.4000244
1359.283456	707.4000244
1359.817274	708.5999756
1360.351037	709.7999878
1360.884744	708.5999756
1361.418395	708.0
1361.951991	709.7999878
1362.485531	707.5999756
1363.019016	707.5999756
1363.552445	714.2000122
1364.085819	707.5999756
1364.619137	707.5999756
1365.1524	712.4000244
1365.685607	707.5999756
1366.218758	708.5999756
1366.751854	711.0
1367.284894	706.7999878
1367.817879	710.7999878
1368.350808	710.5999756
1368.883682	710.0
1369.4165	719.4000244
1369.949263	737.0
1370.48197	727.2000122
1371.014622	708.2000122
1371.547218	712.5999756
1372.079758	706.2000122
1372.612244	709.4000244
1373.144673	707.2000122
1373.677047	709.4000244
1374.209366	712.5999756
1374.741629	709.2000122
1375.273836	714.2000122
1375.805989	716.0
1376.338085	710.7999878
1376.870126	709.2000122
1377.402112	702.5999756
1377.934042	711.2000122
1378.465917	710.0
1378.997736	714.0
1379.5295	714.0
1380.061208	713.7999878
1380.592861	711.7999878
1381.124459	712.0
1381.656	716.2000122
1382.187487	715.2000122
1382.718918	721.4000244
1383.250294	723.4000244
1383.781614	726.5999756
1384.312879	733.0
1384.844088	737.2000122
1385.375242	756.4000244
1385.90634	772.4000244
1386.437383	829.7999878
1386.968371	954.4000244
1387.499303	1364.0
1388.03018	2126.600098
1388.561001	1935.400024
1389.091767	1141.0
1389.622478	849.7999878
1390.153133	775.2000122
1390.683733	747.2000122
1391.214277	737.0
1391.744766	728.0
1392.2752	724.5999756
1392.805578	719.5999756
1393.335901	722.0
1393.866168	715.5999756
1394.396381	713.4000244
1394.926537	711.2000122
1395.456639	714.7999878
1395.986685	710.4000244
1396.516675	717.0
1397.046611	709.7999878
1397.576491	714.0
1398.106315	715.5999756
1398.636084	709.2000122
1399.165798	708.2000122
1399.695457	716.5999756
1400.22506	708.4000244
1400.754608	710.7999878
1401.284101	710.5999756
1401.813538	707.7999878
1402.34292	710.2000122
1402.872247	707.2000122
1403.401518	718.2000122
1403.930734	708.0
1404.459895	711.5999756
1404.989	713.5999756
1405.51805	713.4000244
1406.047045	711.5999756
1406.575984	719.2000122
1407.104869	721.2000122
1407.633697	730.0
1408.162471	740.4000244
1408.691189	763.5999756
1409.219852	784.4000244
1409.74846	799.5999756
1410.277013	771.5999756
1410.80551	741.7999878
1411.333952	722.4000244
1411.862339	716.7999878
1412.39067	712.4000244
1412.918946	710.0
1413.447167	709.2000122
1413.975333	710.2000122
1414.503444	708.4000244
1415.031499	708.4000244
1415.559499	718.5999756
1416.087444	713.0
1416.615333	705.7999878
1417.143167	704.4000244
1417.670947	707.5999756
1418.19867	702.2000122
1418.726339	706.4000244
1419.253952	703.4000244
1419.781511	704.4000244
1420.309014	701.7999878
1420.836461	701.0
1421.363854	705.4000244
1421.891191	704.5999756
1422.418474	705.5999756
1422.945701	702.7999878
1423.472872	706.5999756
1423.999989	705.5999756
1424.52705	706.2000122
1425.054057	708.7999878
1425.581008	700.4000244
1426.107904	703.2000122
1426.634745	706.2000122
1427.16153	702.7999878
1427.688261	702.4000244
1428.214936	707.5999756
1428.741556	700.7999878
1429.268121	700.4000244
1429.794631	701.7999878
1430.321085	701.7999878
1430.847485	703.4000244
1431.373829	701.7999878
1431.900118	700.2000122
1432.426353	702.5999756
1432.952532	703.4000244
1433.478655	702.7999878
1434.004724	705.7999878
1434.530738	701.7999878
1435.056696	700.2000122
1435.5826	703.2000122
1436.108448	705.4000244
1436.634241	703.7999878
1437.159979	703.0
1437.685662	701.2000122
1438.21129	699.7999878
1438.736863	701.2000122
1439.262381	698.0
1439.787843	703.5999756
1440.313251	702.0
1440.838603	702.5999756
1441.3639	704.5999756
1441.889143	699.4000244
1442.41433	699.4000244
1442.939462	700.0
1443.464539	699.2000122
1443.989561	703.0
1444.514528	702.7999878
1445.03944	697.4000244
1445.564297	704.0
1446.089099	699.0
1446.613846	703.0
1447.138537	698.0
1447.663174	698.7999878
1448.187756	699.7999878
1448.712282	704.0
1449.236754	696.2000122
1449.761171	695.4000244
1450.285532	700.7999878
1450.809839	697.4000244
1451.33409	700.2000122
1451.858287	702.7999878
1452.382428	699.2000122
1452.906515	700.7999878
1453.430546	700.2000122
1453.954523	701.4000244
1454.478444	700.0
1455.002311	700.5999756
1455.526123	694.5999756
1456.049879	699.2000122
1456.573581	701.2000122
1457.097227	698.7999878
1457.620819	696.5999756
1458.144356	693.4000244
1458.667837	701.2000122
1459.191264	699.7999878
1459.714636	699.0
1460.237952	700.7999878
1460.761214	697.4000244
1461.284421	699.5999756
1461.807573	698.5999756
1462.33067	695.7999878
1462.853712	701.0
1463.376699	700.5999756
1463.899632	701.0
1464.422509	696.5999756
1464.945331	701.5999756
1465.468099	697.5999756
1465.990811	700.5999756
1466.513469	700.7999878
1467.036071	697.5999756
1467.558619	696.5999756
1468.081112	696.5999756
1468.60355	699.4000244
1469.125933	697.2000122
1469.648261	696.5999756
1470.170534	698.0
1470.692752	701.0
1471.214916	699.4000244
1471.737024	696.2000122
1472.259078	697.5999756
1472.781077	695.2000122
1473.303021	701.5999756
1473.82491	695.5999756
1474.346744	701.0
1474.868523	698.0
1475.390248	697.2000122
1475.911917	696.2000122
1476.433532	697.7999878
1476.955092	698.7999878
1477.476597	701.5999756
1477.998047	698.5999756
1478.519442	696.7999878
1479.040783	695.2000122
1479.562068	698.4000244
1480.083299	694.5999756
1480.604475	695.5999756
1481.125596	697.7999878
1481.646663	703.7999878
1482.167674	698.4000244
1482.688631	697.2000122
1483.209533	700.2000122
1483.73038	695.0
1484.251172	698.2000122
1484.771909	699.7999878
1485.292592	695.2000122
1485.81322	695.7999878
1486.333793	692.0
1486.854311	698.4000244
1487.374775	698.5999756
1487.895183	698.2000122
1488.415537	696.4000244
1488.935836	697.4000244
1489.456081	696.0
1489.97627	696.0
1490.496405	695.5999756
1491.016485	693.2000122
1491.536511	695.4000244
1492.056481	697.0
1492.576397	694.7999878
1493.096258	694.7999878
1493.616064	699.5999756
1494.135816	694.7999878
1494.655513	694.4000244
1495.175155	697.4000244
1495.694742	697.2000122
1496.214274	694.7999878
1496.733752	695.7999878
1497.253175	697.7999878
1497.772544	698.0
1498.291858	698.7999878
1498.811116	698.7999878
1499.330321	698.2000122
1499.84947	701.0
1500.368565	695.0
1500.887605	698.5999756
1501.406591	696.7999878
1501.925521	696.2000122
1502.444397	702.4000244
1502.963219	695.7999878
1503.481985	699.5999756
1504.000697	696.5999756
1504.519355	693.5999756
1505.037957	700.4000244
1505.556505	694.2000122
1506.074999	695.0
1506.593437	694.5999756
1507.111821	696.4000244
1507.63015	695.4000244
1508.148425	696.0
1508.666645	695.2000122
1509.18481	696.2000122
1509.702921	693.7999878
1510.220977	696.0
1510.738979	698.7999878
1511.256925	693.2000122
1511.774817	697.7999878
1512.292655	698.0
1512.810438	699.5999756
1513.328166	695.5999756
1513.84584	696.7999878
1514.363459	695.0
1514.881023	699.7999878
1515.398533	695.2000122
1515.915988	696.2000122
1516.433389	694.4000244
1516.950734	694.0
1517.468026	693.4000244
1517.985263	697.5999756
1518.502445	693.0
1519.019572	696.4000244
1519.536645	693.0
1520.053664	694.7999878
1520.570628	697.5999756
1521.087537	696.5999756
1521.604392	697.2000122
1522.121192	696.5999756
1522.637937	692.4000244
1523.154628	693.7999878
1523.671265	696.2000122
1524.187847	691.2000122
1524.704374	693.5999756
1525.220847	696.7999878
1525.737265	699.7999878
1526.253629	696.5999756
1526.769938	693.5999756
1527.286192	695.5999756
1527.802392	696.0
1528.318538	690.5999756
1528.834629	693.4000244
1529.350666	695.5999756
1529.866648	697.2000122
1530.382575	696.5999756
1530.898448	696.0
1531.414266	694.0
1531.93003	694.2000122
1532.44574	697.2000122
1532.961395	696.5999756
1533.476995	694.4000244
1533.992541	693.5999756
1534.508033	692.7999878
1535.02347	694.4000244
1535.538852	698.5999756
1536.05418	698.5999756
1536.569454	696.2000122
1537.084673	696.0
1537.599837	695.4000244
1538.114947	698.5999756
1538.630003	696.5999756
1539.145004	696.2000122
1539.659951	695.5999756
1540.174843	695.5999756
1540.689681	700.2000122
1541.204465	694.7999878
1541.719194	696.2000122
1542.233868	697.5999756
1542.748488	691.5999756
1543.263054	695.2000122
1543.777565	695.2000122
1544.292022	693.2000122
1544.806424	693.7999878
1545.320772	695.0
1545.835066	697.2000122
1546.349305	694.7999878
1546.863489	692.4000244
1547.37762	694.5999756
1547.891696	692.7999878
1548.405717	698.2000122
1548.919684	693.0
1549.433597	694.0
1549.947455	693.0
1550.461259	691.7999878
1550.975009	694.2000122
1551.488704	690.4000244
1552.002345	692.4000244
1552.515931	690.7999878
1553.029463	693.5999756
1553.542941	696.0
1554.056364	695.0
1554.569733	694.4000244
1555.083048	695.2000122
1555.596308	694.0
1556.109514	696.5999756
1556.622665	696.5999756
1557.135762	695.7999878
1557.648805	695.7999878
1558.161794	693.7999878
1558.674728	697.7999878
1559.187608	697.2000122
1559.700433	693.4000244
1560.213205	695.2000122
1560.725921	693.0
1561.238584	693.0
1561.751192	693.7999878
1562.263746	695.2000122
1562.776246	690.7999878
1563.288691	694.7999878
1563.801082	692.4000244
1564.313419	695.4000244
1564.825701	694.5999756
1565.337929	697.5999756
1565.850103	700.5999756
1566.362223	698.2000122
1566.874288	693.4000244
1567.386299	692.2000122
1567.898256	695.7999878
1568.410158	693.5999756
1568.922007	695.2000122
1569.4338	697.4000244
1569.94554	695.0
1570.457226	694.7999878
1570.968857	697.4000244
1571.480434	690.0
1571.991956	693.5999756
1572.503425	694.7999878
1573.014839	696.5999756
1573.526199	692.7999878
1574.037505	697.5999756
1574.548756	700.0
1575.059953	695.4000244
1575.571096	693.0
1576.082185	696.7999878
1576.59322	698.0
1577.1042	696.0
1577.615126	697.2000122
1578.125998	698.4000244
1578.636816	694.0
1579.14758	695.4000244
1579.658289	695.5999756
1580.168944	693.5999756
1580.679545	693.0
1581.190092	696.7999878
1581.700585	691.4000244
1582.211023	694.5999756
1582.721407	695.7999878
1583.231737	692.5999756
1583.742013	695.5999756
1584.252235	693.7999878
1584.762403	695.2000122
1585.272516	691.5999756
1585.782575	693.2000122
1586.292581	695.5999756
1586.802532	691.4000244
1587.312428	695.0
1587.822271	689.0
1588.33206	697.0
1588.841794	692.0
1589.351474	693.0
1589.8611	693.5999756
1590.370672	690.4000244
1590.88019	693.4000244
1591.389654	697.0
1591.899064	690.7999878
1592.408419	692.7999878
