 1.042452273E+03	 7.071399902E+03
 1.043018714E+03	 7.039600098E+03
 1.043585098E+03	 7.083600098E+03
 1.044151424E+03	 7.104799805E+03
 1.044717692E+03	 7.080600098E+03
 1.045283903E+03	 7.042200195E+03
 1.045850056E+03	 7.068799805E+03
 1.046416151E+03	 7.043200195E+03
 1.046982188E+03	 7.059600098E+03
 1.047548167E+03	 7.014600098E+03
 1.048114089E+03	 7.059000000E+03
 1.048679953E+03	 7.088000000E+03
 1.049245760E+03	 7.029399902E+03
 1.049811509E+03	 7.059799805E+03
 1.050377200E+03	 7.036000000E+03
 1.050942833E+03	 7.008600098E+03
 1.051508408E+03	 6.992000000E+03
 1.052073926E+03	 7.044600098E+03
 1.052639387E+03	 7.010600098E+03
 1.053204789E+03	 7.025399902E+03
 1.053770134E+03	 7.011399902E+03
 1.054335421E+03	 6.993799805E+03
 1.054900651E+03	 6.937000000E+03
 1.055465823E+03	 6.976399902E+03
 1.056030937E+03	 6.952799805E+03
 1.056595993E+03	 6.967799805E+03
 1.057160992E+03	 6.954799805E+03
 1.057725934E+03	 6.954799805E+03
 1.058290817E+03	 6.946799805E+03
 1.058855643E+03	 6.928399902E+03
 1.059420411E+03	 6.987600098E+03
 1.059985122E+03	 6.920399902E+03
 1.060549775E+03	 6.922600098E+03
 1.061114371E+03	 6.918200195E+03
 1.061678908E+03	 6.891000000E+03
 1.062243389E+03	 6.916600098E+03
 1.062807811E+03	 6.947399902E+03
 1.063372176E+03	 6.858799805E+03
 1.063936483E+03	 6.874000000E+03
 1.064500733E+03	 6.885799805E+03
 1.065064925E+03	 6.854799805E+03
 1.065629060E+03	 6.883600098E+03
 1.066193137E+03	 6.916000000E+03
 1.066757156E+03	 6.891399902E+03
 1.067321118E+03	 6.844200195E+03
 1.067885022E+03	 6.794000000E+03
 1.068448869E+03	 6.829799805E+03
 1.069012658E+03	 6.832600098E+03
 1.069576390E+03	 6.846399902E+03
 1.070140063E+03	 6.793200195E+03
 1.070703680E+03	 6.815799805E+03
 1.071267239E+03	 6.812600098E+03
 1.071830740E+03	 6.806200195E+03
 1.072394184E+03	 6.795799805E+03
 1.072957570E+03	 6.839799805E+03
 1.073520899E+03	 6.740200195E+03
 1.074084170E+03	 6.785000000E+03
 1.074647383E+03	 6.737200195E+03
 1.075210540E+03	 6.773200195E+03
 1.075773638E+03	 6.704600098E+03
 1.076336679E+03	 6.734200195E+03
 1.076899663E+03	 6.700399902E+03
 1.077462589E+03	 6.688600098E+03
 1.078025457E+03	 6.698000000E+03
 1.078588268E+03	 6.719399902E+03
 1.079151022E+03	 6.685399902E+03
 1.079713718E+03	 6.711600098E+03
 1.080276356E+03	 6.717200195E+03
 1.080838937E+03	 6.710200195E+03
 1.081401461E+03	 6.708399902E+03
 1.081963927E+03	 6.664200195E+03
 1.082526336E+03	 6.606399902E+03
 1.083088687E+03	 6.670000000E+03
 1.083650981E+03	 6.621399902E+03
 1.084213217E+03	 6.634200195E+03
 1.084775396E+03	 6.582200195E+03
 1.085337517E+03	 6.630799805E+03
 1.085899581E+03	 6.589799805E+03
 1.086461587E+03	 6.619600098E+03
 1.087023536E+03	 6.582399902E+03
 1.087585428E+03	 6.621200195E+03
 1.088147262E+03	 6.560000000E+03
 1.088709039E+03	 6.614000000E+03
 1.089270758E+03	 6.527399902E+03
 1.089832420E+03	 6.557000000E+03
 1.090394024E+03	 6.506399902E+03
 1.090955571E+03	 6.553799805E+03
 1.091517061E+03	 6.501399902E+03
 1.092078493E+03	 6.545600098E+03
 1.092639868E+03	 6.482799805E+03
 1.093201185E+03	 6.529000000E+03
 1.093762445E+03	 6.479600098E+03
 1.094323648E+03	 6.471600098E+03
 1.094884793E+03	 6.489799805E+03
 1.095445881E+03	 6.489200195E+03
 1.096006911E+03	 6.431399902E+03
 1.096567884E+03	 6.424200195E+03
 1.097128800E+03	 6.434200195E+03
 1.097689659E+03	 6.465600098E+03
 1.098250460E+03	 6.414600098E+03
 1.098811203E+03	 6.416799805E+03
 1.099371890E+03	 6.384200195E+03
 1.099932518E+03	 6.434799805E+03
 1.100493090E+03	 6.427799805E+03
 1.101053604E+03	 6.393600098E+03
 1.101614061E+03	 6.365399902E+03
 1.102174461E+03	 6.345000000E+03
 1.102734803E+03	 6.312399902E+03
 1.103295088E+03	 6.375799805E+03
 1.103855316E+03	 6.294200195E+03
 1.104415486E+03	 6.347200195E+03
 1.104975599E+03	 6.304000000E+03
 1.105535655E+03	 6.344799805E+03
 1.106095653E+03	 6.292000000E+03
 1.106655594E+03	 6.332399902E+03
 1.107215478E+03	 6.293799805E+03
 1.107775305E+03	 6.311799805E+03
 1.108335074E+03	 6.247399902E+03
 1.108894786E+03	 6.266799805E+03
 1.109454440E+03	 6.204200195E+03
 1.110014038E+03	 6.264399902E+03
 1.110573578E+03	 6.225399902E+03
 1.111133061E+03	 6.287799805E+03
 1.111692486E+03	 6.226000000E+03
 1.112251854E+03	 6.228799805E+03
 1.112811165E+03	 6.228600098E+03
 1.113370419E+03	 6.249600098E+03
 1.113929616E+03	 6.236600098E+03
 1.114488755E+03	 6.267600098E+03
 1.115047837E+03	 6.206799805E+03
 1.115606862E+03	 6.203600098E+03
 1.116165830E+03	 6.214200195E+03
 1.116724740E+03	 6.220200195E+03
 1.117283593E+03	 6.181600098E+03
 1.117842389E+03	 6.183600098E+03
 1.118401128E+03	 6.144600098E+03
 1.118959809E+03	 6.188399902E+03
 1.119518433E+03	 6.123200195E+03
 1.120077000E+03	 6.183000000E+03
 1.120635510E+03	 6.200399902E+03
 1.121193963E+03	 6.150000000E+03
 1.121752358E+03	 6.123799805E+03
 1.122310697E+03	 6.159399902E+03
 1.122868978E+03	 6.129399902E+03
 1.123427202E+03	 6.153000000E+03
 1.123985368E+03	 6.122000000E+03
 1.124543478E+03	 6.110399902E+03
 1.125101530E+03	 6.083399902E+03
 1.125659526E+03	 6.094000000E+03
 1.126217464E+03	 6.092000000E+03
 1.126775345E+03	 6.109000000E+03
 1.127333168E+03	 6.155399902E+03
 1.127890935E+03	 6.057000000E+03
 1.128448644E+03	 6.034000000E+03
 1.129006297E+03	 6.083200195E+03
 1.129563892E+03	 6.124799805E+03
 1.130121430E+03	 6.072799805E+03
 1.130678911E+03	 6.082000000E+03
 1.131236335E+03	 6.082600098E+03
 1.131793701E+03	 6.065000000E+03
 1.132351011E+03	 6.047600098E+03
 1.132908263E+03	 6.073200195E+03
 1.133465458E+03	 6.028799805E+03
 1.134022597E+03	 6.034000000E+03
 1.134579678E+03	 6.076600098E+03
 1.135136702E+03	 6.077600098E+03
 1.135693669E+03	 6.050200195E+03
 1.136250578E+03	 6.037000000E+03
 1.136807431E+03	 6.022399902E+03
 1.137364227E+03	 6.040799805E+03
 1.137920965E+03	 6.055399902E+03
 1.138477647E+03	 6.020799805E+03
 1.139034271E+03	 6.004600098E+03
 1.139590839E+03	 5.998799805E+03
 1.140147349E+03	 6.040799805E+03
 1.140703802E+03	 6.015600098E+03
 1.141260198E+03	 5.994200195E+03
 1.141816537E+03	 6.041399902E+03
 1.142372820E+03	 5.994000000E+03
 1.142929045E+03	 5.996600098E+03
 1.143485213E+03	 5.981600098E+03
 1.144041323E+03	 6.003000000E+03
 1.144597377E+03	 5.982600098E+03
 1.145153374E+03	 6.017600098E+03
 1.145709314E+03	 5.981200195E+03
 1.146265197E+03	 5.951399902E+03
 1.146821023E+03	 5.977799805E+03
 1.147376792E+03	 6.002600098E+03
 1.147932503E+03	 6.007600098E+03
 1.148488158E+03	 6.009399902E+03
 1.149043756E+03	 5.955600098E+03
 1.149599297E+03	 5.968799805E+03
 1.150154781E+03	 5.980799805E+03
 1.150710207E+03	 5.962399902E+03
 1.151265577E+03	 5.982000000E+03
 1.151820890E+03	 5.987000000E+03
 1.152376146E+03	 6.007000000E+03
 1.152931345E+03	 5.953600098E+03
 1.153486487E+03	 5.933799805E+03
 1.154041572E+03	 5.976600098E+03
 1.154596600E+03	 5.923200195E+03
 1.155151571E+03	 5.955799805E+03
 1.155706485E+03	 5.946399902E+03
 1.156261342E+03	 5.939799805E+03
 1.156816142E+03	 5.926000000E+03
 1.157370885E+03	 5.914600098E+03
 1.157925572E+03	 5.953200195E+03
 1.158480201E+03	 5.925799805E+03
 1.159034774E+03	 5.921399902E+03
 1.159589289E+03	 5.935399902E+03
 1.160143748E+03	 5.890000000E+03
 1.160698149E+03	 5.911600098E+03
 1.161252494E+03	 5.901600098E+03
 1.161806782E+03	 5.951399902E+03
 1.162361013E+03	 5.861200195E+03
 1.162915187E+03	 5.912000000E+03
 1.163469304E+03	 5.888600098E+03
 1.164023364E+03	 5.922799805E+03
 1.164577368E+03	 5.856600098E+03
 1.165131314E+03	 5.938000000E+03
 1.165685204E+03	 5.826399902E+03
 1.166239036E+03	 5.908200195E+03
 1.166792812E+03	 5.811600098E+03
 1.167346531E+03	 5.874000000E+03
 1.167900193E+03	 5.887000000E+03
 1.168453798E+03	 5.873399902E+03
 1.169007347E+03	 5.853799805E+03
 1.169560838E+03	 5.863799805E+03
 1.170114273E+03	 5.859000000E+03
 1.170667650E+03	 5.835200195E+03
 1.171220971E+03	 5.816200195E+03
 1.171774235E+03	 5.854000000E+03
 1.172327443E+03	 5.841200195E+03
 1.172880593E+03	 5.854200195E+03
 1.173433687E+03	 5.819200195E+03
 1.173986723E+03	 5.841600098E+03
 1.174539703E+03	 5.813600098E+03
 1.175092626E+03	 5.800600098E+03
 1.175645493E+03	 5.819200195E+03
 1.176198302E+03	 5.821000000E+03
 1.176751055E+03	 5.776799805E+03
 1.177303751E+03	 5.787600098E+03
 1.177856390E+03	 5.806600098E+03
 1.178408972E+03	 5.796200195E+03
 1.178961498E+03	 5.812399902E+03
 1.179513966E+03	 5.777200195E+03
 1.180066378E+03	 5.793399902E+03
 1.180618733E+03	 5.731200195E+03
 1.181171032E+03	 5.785200195E+03
 1.181723273E+03	 5.767799805E+03
 1.182275458E+03	 5.784000000E+03
 1.182827586E+03	 5.756799805E+03
 1.183379657E+03	 5.734399902E+03
 1.183931672E+03	 5.737399902E+03
 1.184483630E+03	 5.746799805E+03
 1.185035531E+03	 5.780799805E+03
 1.185587375E+03	 5.738799805E+03
 1.186139162E+03	 5.734799805E+03
 1.186690893E+03	 5.729399902E+03
 1.187242567E+03	 5.709399902E+03
 1.187794184E+03	 5.762000000E+03
 1.188345745E+03	 5.696200195E+03
 1.188897249E+03	 5.734600098E+03
 1.189448696E+03	 5.677200195E+03
 1.190000086E+03	 5.739600098E+03
 1.190551420E+03	 5.698000000E+03
 1.191102697E+03	 5.707000000E+03
 1.191653918E+03	 5.666600098E+03
 1.192205081E+03	 5.726200195E+03
 1.192756188E+03	 5.689399902E+03
 1.193307238E+03	 5.671200195E+03
 1.193858232E+03	 5.674799805E+03
 1.194409169E+03	 5.674399902E+03
 1.194960049E+03	 5.678600098E+03
 1.195510872E+03	 5.671000000E+03
 1.196061639E+03	 5.646200195E+03
 1.196612349E+03	 5.627600098E+03
 1.197163003E+03	 5.629200195E+03
 1.197713599E+03	 5.637600098E+03
 1.198264139E+03	 5.630000000E+03
 1.198814623E+03	 5.632399902E+03
 1.199365050E+03	 5.636000000E+03
 1.199915420E+03	 5.608799805E+03
 1.200465734E+03	 5.610600098E+03
 1.201015990E+03	 5.591799805E+03
 1.201566191E+03	 5.617000000E+03
 1.202116334E+03	 5.562799805E+03
 1.202666421E+03	 5.595000000E+03
 1.203216452E+03	 5.588200195E+03
 1.203766425E+03	 5.598399902E+03
 1.204316343E+03	 5.579200195E+03
 1.204866203E+03	 5.609399902E+03
 1.205416007E+03	 5.580000000E+03
 1.205965754E+03	 5.587200195E+03
 1.206515445E+03	 5.539399902E+03
 1.207065079E+03	 5.567000000E+03
 1.207614657E+03	 5.555799805E+03
 1.208164177E+03	 5.523000000E+03
 1.208713642E+03	 5.552399902E+03
 1.209263050E+03	 5.556000000E+03
 1.209812401E+03	 5.563799805E+03
 1.210361695E+03	 5.529799805E+03
 1.210910933E+03	 5.520799805E+03
 1.211460115E+03	 5.529399902E+03
 1.212009240E+03	 5.541399902E+03
 1.212558308E+03	 5.477200195E+03
 1.213107320E+03	 5.536399902E+03
 1.213656275E+03	 5.476600098E+03
 1.214205174E+03	 5.487799805E+03
 1.214754016E+03	 5.495600098E+03
 1.215302801E+03	 5.525000000E+03
 1.215851530E+03	 5.507600098E+03
 1.216400203E+03	 5.498799805E+03
 1.216948819E+03	 5.495200195E+03
 1.217497378E+03	 5.512799805E+03
 1.218045881E+03	 5.472399902E+03
 1.218594327E+03	 5.456799805E+03
 1.219142717E+03	 5.474000000E+03
 1.219691051E+03	 5.506799805E+03
 1.220239327E+03	 5.456000000E+03
 1.220787548E+03	 5.438000000E+03
 1.221335712E+03	 5.473000000E+03
 1.221883819E+03	 5.480200195E+03
 1.222431870E+03	 5.427200195E+03
 1.222979864E+03	 5.476600098E+03
 1.223527802E+03	 5.440200195E+03
 1.224075683E+03	 5.432200195E+03
 1.224623508E+03	 5.455000000E+03
 1.225171277E+03	 5.423799805E+03
 1.225718989E+03	 5.421600098E+03
 1.226266644E+03	 5.415200195E+03
 1.226814243E+03	 5.435799805E+03
 1.227361786E+03	 5.398399902E+03
 1.227909272E+03	 5.416399902E+03
 1.228456702E+03	 5.411799805E+03
 1.229004075E+03	 5.419000000E+03
 1.229551392E+03	 5.401399902E+03
 1.230098652E+03	 5.399399902E+03
 1.230645856E+03	 5.360200195E+03
 1.231193003E+03	 5.404399902E+03
 1.231740094E+03	 5.355399902E+03
 1.232287129E+03	 5.419000000E+03
 1.232834107E+03	 5.389799805E+03
 1.233381029E+03	 5.394799805E+03
 1.233927894E+03	 5.386399902E+03
 1.234474703E+03	 5.367799805E+03
 1.235021455E+03	 5.341799805E+03
 1.235568151E+03	 5.391799805E+03
 1.236114791E+03	 5.362600098E+03
 1.236661374E+03	 5.381000000E+03
 1.237207901E+03	 5.376600098E+03
 1.237754372E+03	 5.367000000E+03
 1.238300786E+03	 5.342399902E+03
 1.238847144E+03	 5.321000000E+03
 1.239393445E+03	 5.342000000E+03
 1.239939690E+03	 5.353799805E+03
 1.240485879E+03	 5.342799805E+03
 1.241032011E+03	 5.361200195E+03
 1.241578087E+03	 5.337600098E+03
 1.242124106E+03	 5.262200195E+03
 1.242670070E+03	 5.310200195E+03
 1.243215976E+03	 5.302000000E+03
 1.243761827E+03	 5.312799805E+03
 1.244307621E+03	 5.327399902E+03
 1.244853359E+03	 5.329000000E+03
 1.245399040E+03	 5.300799805E+03
 1.245944665E+03	 5.332000000E+03
 1.246490234E+03	 5.293399902E+03
 1.247035746E+03	 5.306600098E+03
 1.247581203E+03	 5.285200195E+03
 1.248126602E+03	 5.289799805E+03
 1.248671946E+03	 5.259399902E+03
 1.249217233E+03	 5.264399902E+03
 1.249762464E+03	 5.269200195E+03
 1.250307638E+03	 5.321600098E+03
 1.250852757E+03	 5.247000000E+03
 1.251397819E+03	 5.290799805E+03
 1.251942824E+03	 5.267399902E+03
 1.252487774E+03	 5.250600098E+03
 1.253032667E+03	 5.236000000E+03
 1.253577503E+03	 5.261600098E+03
 1.254122284E+03	 5.240600098E+03
 1.254667008E+03	 5.257000000E+03
 1.255211676E+03	 5.212799805E+03
 1.255756288E+03	 5.267000000E+03
 1.256300843E+03	 5.247000000E+03
 1.256845342E+03	 5.270200195E+03
 1.257389785E+03	 5.251399902E+03
 1.257934172E+03	 5.227799805E+03
 1.258478502E+03	 5.222600098E+03
 1.259022776E+03	 5.201799805E+03
 1.259566994E+03	 5.252600098E+03
 1.260111156E+03	 5.227399902E+03
 1.260655261E+03	 5.237799805E+03
 1.261199311E+03	 5.184600098E+03
 1.261743304E+03	 5.203399902E+03
 1.262287240E+03	 5.168600098E+03
 1.262831121E+03	 5.163600098E+03
 1.263374945E+03	 5.172399902E+03
 1.263918713E+03	 5.196799805E+03
 1.264462425E+03	 5.202600098E+03
 1.265006081E+03	 5.188600098E+03
 1.265549680E+03	 5.166399902E+03
 1.266093223E+03	 5.208000000E+03
 1.266636711E+03	 5.213200195E+03
 1.267180141E+03	 5.155000000E+03
 1.267723516E+03	 5.174600098E+03
 1.268266835E+03	 5.163000000E+03
 1.268810097E+03	 5.159000000E+03
 1.269353303E+03	 5.178000000E+03
 1.269896453E+03	 5.139200195E+03
 1.270439547E+03	 5.184000000E+03
 1.270982584E+03	 5.135000000E+03
 1.271525566E+03	 5.153799805E+03
 1.272068491E+03	 5.121200195E+03
 1.272611360E+03	 5.145600098E+03
 1.273154173E+03	 5.140399902E+03
 1.273696930E+03	 5.137600098E+03
 1.274239631E+03	 5.131000000E+03
 1.274782275E+03	 5.144799805E+03
 1.275324864E+03	 5.108200195E+03
 1.275867396E+03	 5.125600098E+03
 1.276409872E+03	 5.108200195E+03
 1.276952292E+03	 5.108399902E+03
 1.277494656E+03	 5.113399902E+03
 1.278036964E+03	 5.106399902E+03
 1.278579215E+03	 5.101000000E+03
 1.279121411E+03	 5.110399902E+03
 1.279663550E+03	 5.116600098E+03
 1.280205634E+03	 5.041799805E+03
 1.280747661E+03	 5.118399902E+03
 1.281289632E+03	 5.056799805E+03
 1.281831547E+03	 5.088000000E+03
 1.282373406E+03	 5.105799805E+03
 1.282915209E+03	 5.097600098E+03
 1.283456955E+03	 5.053399902E+03
 1.283998646E+03	 5.057799805E+03
 1.284540281E+03	 5.050000000E+03
 1.285081859E+03	 5.093799805E+03
 1.285623381E+03	 5.165399902E+03
 1.286164848E+03	 5.238200195E+03
 1.286706258E+03	 5.075200195E+03
 1.287247612E+03	 5.055200195E+03
 1.287788911E+03	 5.089600098E+03
 1.288330153E+03	 5.018000000E+03
 1.288871339E+03	 5.072000000E+03
 1.289412469E+03	 5.068600098E+03
 1.289953543E+03	 5.326000000E+03
 1.290494561E+03	 5.031600098E+03
 1.291035523E+03	 4.996600098E+03
 1.291576428E+03	 5.003399902E+03
 1.292117278E+03	 5.023600098E+03
 1.292658072E+03	 4.997200195E+03
 1.293198810E+03	 5.021399902E+03
 1.293739492E+03	 5.002799805E+03
 1.294280118E+03	 4.996799805E+03
 1.294820687E+03	 5.005399902E+03
 1.295361201E+03	 5.003600098E+03
 1.295901659E+03	 5.007799805E+03
 1.296442061E+03	 4.995600098E+03
 1.296982406E+03	 4.997200195E+03
 1.297522696E+03	 4.966000000E+03
 1.298062930E+03	 4.998200195E+03
 1.298603108E+03	 4.960600098E+03
 1.299143229E+03	 4.980399902E+03
 1.299683295E+03	 4.985600098E+03
 1.300223305E+03	 4.971000000E+03
 1.300763259E+03	 4.950399902E+03
 1.301303157E+03	 4.940399902E+03
 1.301842999E+03	 4.983000000E+03
 1.302382785E+03	 4.912000000E+03
 1.302922515E+03	 4.950000000E+03
 1.303462189E+03	 4.944200195E+03
 1.304001807E+03	 4.957200195E+03
 1.304541369E+03	 4.974799805E+03
 1.305080875E+03	 4.946799805E+03
 1.305620326E+03	 4.966000000E+03
 1.306159720E+03	 4.907399902E+03
 1.306699058E+03	 4.945000000E+03
 1.307238341E+03	 4.918799805E+03
 1.307777567E+03	 4.945200195E+03
 1.308316738E+03	 4.908600098E+03
 1.308855853E+03	 4.948399902E+03
 1.309394912E+03	 4.920399902E+03
 1.309933915E+03	 4.906799805E+03
 1.310472862E+03	 4.878200195E+03
 1.311011753E+03	 4.878200195E+03
 1.311550588E+03	 4.883399902E+03
 1.312089367E+03	 4.931399902E+03
 1.312628090E+03	 4.892799805E+03
 1.313166758E+03	 4.902799805E+03
 1.313705370E+03	 4.885600098E+03
 1.314243925E+03	 4.887200195E+03
 1.314782425E+03	 4.866000000E+03
 1.315320869E+03	 4.874799805E+03
 1.315859257E+03	 4.905399902E+03
 1.316397589E+03	 4.908399902E+03
 1.316935866E+03	 4.850399902E+03
 1.317474086E+03	 4.883799805E+03
 1.318012251E+03	 4.850399902E+03
 1.318550360E+03	 4.868000000E+03
 1.319088413E+03	 4.861799805E+03
 1.319626410E+03	 4.852600098E+03
 1.320164351E+03	 4.873200195E+03
 1.320702236E+03	 4.849600098E+03
 1.321240066E+03	 4.879000000E+03
 1.321777839E+03	 4.810799805E+03
 1.322315557E+03	 4.852799805E+03
 1.322853219E+03	 4.848799805E+03
 1.323390826E+03	 4.855399902E+03
 1.323928376E+03	 4.830399902E+03
 1.324465871E+03	 4.812200195E+03
 1.325003309E+03	 4.800799805E+03
 1.325540692E+03	 4.822600098E+03
 1.326078020E+03	 4.820600098E+03
 1.326615291E+03	 4.836799805E+03
 1.327152506E+03	 4.823200195E+03
 1.327689666E+03	 4.787799805E+03
 1.328226770E+03	 4.803200195E+03
 1.328763818E+03	 4.831000000E+03
 1.329300811E+03	 4.808000000E+03
 1.329837747E+03	 4.819000000E+03
 1.330374628E+03	 4.810600098E+03
 1.330911453E+03	 4.772600098E+03
 1.331448222E+03	 4.819000000E+03
 1.331984936E+03	 4.754000000E+03
 1.332521594E+03	 4.801200195E+03
 1.333058196E+03	 4.762000000E+03
 1.333594742E+03	 4.802799805E+03
 1.334131232E+03	 4.762000000E+03
 1.334667667E+03	 4.775399902E+03
 1.335204046E+03	 4.796200195E+03
 1.335740369E+03	 4.777399902E+03
 1.336276637E+03	 4.768600098E+03
 1.336812848E+03	 4.762399902E+03
 1.337349004E+03	 4.762600098E+03
 1.337885105E+03	 4.757600098E+03
 1.338421149E+03	 4.769799805E+03
 1.338957138E+03	 4.764200195E+03
 1.339493071E+03	 4.761200195E+03
 1.340028949E+03	 4.713000000E+03
 1.340564770E+03	 4.738600098E+03
 1.341100536E+03	 4.737799805E+03
 1.341636246E+03	 4.731399902E+03
 1.342171901E+03	 4.715000000E+03
 1.342707500E+03	 4.758600098E+03
 1.343243043E+03	 4.702799805E+03
 1.343778530E+03	 4.735600098E+03
 1.344313962E+03	 4.696000000E+03
 1.344849338E+03	 4.723799805E+03
 1.345384659E+03	 4.692799805E+03
 1.345919923E+03	 4.716399902E+03
 1.346455133E+03	 4.681799805E+03
 1.346990286E+03	 4.689200195E+03
 1.347525384E+03	 4.709799805E+03
 1.348060426E+03	 4.676399902E+03
 1.348595412E+03	 4.722799805E+03
 1.349130343E+03	 4.704399902E+03
 1.349665218E+03	 4.716000000E+03
 1.350200037E+03	 4.671799805E+03
 1.350734801E+03	 4.679600098E+03
 1.351269509E+03	 4.677600098E+03
 1.351804162E+03	 4.685799805E+03
 1.352338758E+03	 4.641600098E+03
 1.352873300E+03	 4.691000000E+03
 1.353407785E+03	 4.627000000E+03
 1.353942215E+03	 4.690200195E+03
 1.354476589E+03	 4.646399902E+03
 1.355010908E+03	 4.653399902E+03
 1.355545171E+03	 4.652799805E+03
 1.356079379E+03	 4.678200195E+03
 1.356613530E+03	 4.671799805E+03
 1.357147627E+03	 4.664399902E+03
 1.357681667E+03	 4.648399902E+03
 1.358215652E+03	 4.652799805E+03
 1.358749582E+03	 4.673799805E+03
 1.359283456E+03	 4.630000000E+03
 1.359817274E+03	 4.634200195E+03
 1.360351037E+03	 4.591600098E+03
 1.360884744E+03	 4.628799805E+03
 1.361418395E+03	 4.609200195E+03
 1.361951991E+03	 4.646399902E+03
 1.362485531E+03	 4.597200195E+03
 1.363019016E+03	 4.647600098E+03
 1.363552445E+03	 4.619799805E+03
 1.364085819E+03	 4.659799805E+03
 1.364619137E+03	 4.604000000E+03
 1.365152400E+03	 4.609399902E+03
 1.365685607E+03	 4.581799805E+03
 1.366218758E+03	 4.636000000E+03
 1.366751854E+03	 4.596799805E+03
 1.367284894E+03	 4.585200195E+03
 1.367817879E+03	 4.602000000E+03
 1.368350808E+03	 4.587200195E+03
 1.368883682E+03	 4.593200195E+03
 1.369416500E+03	 4.584399902E+03
 1.369949263E+03	 4.580200195E+03
 1.370481970E+03	 4.581000000E+03
 1.371014622E+03	 4.594799805E+03
 1.371547218E+03	 4.532399902E+03
 1.372079758E+03	 4.601200195E+03
 1.372612244E+03	 4.542799805E+03
 1.373144673E+03	 4.556200195E+03
 1.373677047E+03	 4.541200195E+03
 1.374209366E+03	 4.549200195E+03
 1.374741629E+03	 4.501399902E+03
 1.375273836E+03	 4.570600098E+03
 1.375805989E+03	 4.539200195E+03
 1.376338085E+03	 4.533200195E+03
 1.376870126E+03	 4.552799805E+03
 1.377402112E+03	 4.552000000E+03
 1.377934042E+03	 4.523799805E+03
 1.378465917E+03	 4.519600098E+03
 1.378997736E+03	 4.533600098E+03
 1.379529500E+03	 4.521799805E+03
 1.380061208E+03	 4.570799805E+03
 1.380592861E+03	 4.483799805E+03
 1.381124459E+03	 4.559200195E+03
 1.381656000E+03	 4.514399902E+03
 1.382187487E+03	 4.506000000E+03
 1.382718918E+03	 4.512200195E+03
 1.383250294E+03	 4.535200195E+03
 1.383781614E+03	 4.486799805E+03
 1.384312879E+03	 4.536200195E+03
 1.384844088E+03	 4.500600098E+03
 1.385375242E+03	 4.489000000E+03
 1.385906340E+03	 4.492399902E+03
 1.386437383E+03	 4.508000000E+03
 1.386968371E+03	 4.515000000E+03
 1.387499303E+03	 4.523600098E+03
 1.388030180E+03	 4.504200195E+03
 1.388561001E+03	 4.593600098E+03
 1.389091767E+03	 4.789000000E+03
 1.389622478E+03	 4.558200195E+03
 1.390153133E+03	 4.504200195E+03
 1.390683733E+03	 4.496600098E+03
 1.391214277E+03	 4.470799805E+03
 1.391744766E+03	 4.482799805E+03
 1.392275200E+03	 4.495399902E+03
 1.392805578E+03	 4.455399902E+03
 1.393335901E+03	 4.454799805E+03
 1.393866168E+03	 4.460399902E+03
 1.394396381E+03	 4.464799805E+03
 1.394926537E+03	 4.459600098E+03
 1.395456639E+03	 4.469200195E+03
 1.395986685E+03	 4.466000000E+03
 1.396516675E+03	 4.451399902E+03
 1.397046611E+03	 4.447799805E+03
 1.397576491E+03	 4.435200195E+03
 1.398106315E+03	 4.462799805E+03
 1.398636084E+03	 4.428399902E+03
 1.399165798E+03	 4.445600098E+03
 1.399695457E+03	 4.422200195E+03
 1.400225060E+03	 4.484000000E+03
 1.400754608E+03	 4.419600098E+03
 1.401284101E+03	 4.423200195E+03
 1.401813538E+03	 4.399399902E+03
 1.402342920E+03	 4.420799805E+03
 1.402872247E+03	 4.438200195E+03
 1.403401518E+03	 4.467600098E+03
 1.403930734E+03	 4.459200195E+03
 1.404459895E+03	 4.414600098E+03
 1.404989000E+03	 4.425000000E+03
 1.405518050E+03	 4.424000000E+03
 1.406047045E+03	 4.420000000E+03
 1.406575984E+03	 4.399799805E+03
 1.407104869E+03	 4.407200195E+03
 1.407633697E+03	 4.395399902E+03
 1.408162471E+03	 4.418000000E+03
 1.408691189E+03	 4.434399902E+03
 1.409219852E+03	 4.425200195E+03
 1.409748460E+03	 4.401600098E+03
 1.410277013E+03	 4.428600098E+03
 1.410805510E+03	 4.403600098E+03
 1.411333952E+03	 4.401000000E+03
 1.411862339E+03	 4.394600098E+03
 1.412390670E+03	 4.396399902E+03
 1.412918946E+03	 4.397000000E+03
 1.413447167E+03	 4.371399902E+03
 1.413975333E+03	 4.373399902E+03
 1.414503444E+03	 4.370399902E+03
 1.415031499E+03	 4.386399902E+03
 1.415559499E+03	 4.372200195E+03
 1.416087444E+03	 4.350600098E+03
 1.416615333E+03	 4.355200195E+03
 1.417143167E+03	 4.371399902E+03
 1.417670947E+03	 4.388000000E+03
 1.418198670E+03	 4.365799805E+03
 1.418726339E+03	 4.385600098E+03
 1.419253952E+03	 4.345799805E+03
 1.419781511E+03	 4.336000000E+03
 1.420309014E+03	 4.368799805E+03
 1.420836461E+03	 4.345200195E+03
 1.421363854E+03	 4.387799805E+03
 1.421891191E+03	 4.368399902E+03
 1.422418474E+03	 4.308399902E+03
 1.422945701E+03	 4.356399902E+03
 1.423472872E+03	 4.384600098E+03
 1.423999989E+03	 4.334399902E+03
 1.424527050E+03	 4.307799805E+03
 1.425054057E+03	 4.353200195E+03
 1.425581008E+03	 4.335799805E+03
 1.426107904E+03	 4.349000000E+03
 1.426634745E+03	 4.321200195E+03
 1.427161530E+03	 4.329200195E+03
 1.427688261E+03	 4.312200195E+03
 1.428214936E+03	 4.323200195E+03
 1.428741556E+03	 4.303799805E+03
 1.429268121E+03	 4.301399902E+03
 1.429794631E+03	 4.321799805E+03
 1.430321085E+03	 4.281399902E+03
 1.430847485E+03	 4.278000000E+03
 1.431373829E+03	 4.333799805E+03
 1.431900118E+03	 4.290000000E+03
 1.432426353E+03	 4.299399902E+03
 1.432952532E+03	 4.302799805E+03
 1.433478655E+03	 4.309799805E+03
 1.434004724E+03	 4.287399902E+03
 1.434530738E+03	 4.260600098E+03
 1.435056696E+03	 4.295600098E+03
 1.435582600E+03	 4.300600098E+03
 1.436108448E+03	 4.301399902E+03
 1.436634241E+03	 4.247399902E+03
 1.437159979E+03	 4.280200195E+03
 1.437685662E+03	 4.283600098E+03
 1.438211290E+03	 4.264399902E+03
 1.438736863E+03	 4.296399902E+03
 1.439262381E+03	 4.252799805E+03
 1.439787843E+03	 4.256399902E+03
 1.440313251E+03	 4.277000000E+03
 1.440838603E+03	 4.273200195E+03
 1.441363900E+03	 4.269000000E+03
 1.441889143E+03	 4.251600098E+03
 1.442414330E+03	 4.260200195E+03
 1.442939462E+03	 4.219200195E+03
 1.443464539E+03	 4.229799805E+03
 1.443989561E+03	 4.236399902E+03
 1.444514528E+03	 4.222399902E+03
 1.445039440E+03	 4.213600098E+03
 1.445564297E+03	 4.229600098E+03
 1.446089099E+03	 4.236000000E+03
 1.446613846E+03	 4.180799805E+03
 1.447138537E+03	 4.208399902E+03
 1.447663174E+03	 4.207200195E+03
 1.448187756E+03	 4.207200195E+03
 1.448712282E+03	 4.237000000E+03
 1.449236754E+03	 4.213600098E+03
 1.449761171E+03	 4.203200195E+03
 1.450285532E+03	 4.210399902E+03
 1.450809839E+03	 4.220000000E+03
 1.451334090E+03	 4.179000000E+03
 1.451858287E+03	 4.172000000E+03
 1.452382428E+03	 4.173000000E+03
 1.452906515E+03	 4.173600098E+03
 1.453430546E+03	 4.181399902E+03
 1.453954523E+03	 4.168799805E+03
 1.454478444E+03	 4.209000000E+03
 1.455002311E+03	 4.183200195E+03
 1.455526123E+03	 4.143799805E+03
 1.456049879E+03	 4.170799805E+03
 1.456573581E+03	 4.167399902E+03
 1.457097227E+03	 4.194799805E+03
 1.457620819E+03	 4.169399902E+03
 1.458144356E+03	 4.182399902E+03
 1.458667837E+03	 4.194399902E+03
 1.459191264E+03	 4.134600098E+03
 1.459714636E+03	 4.161799805E+03
 1.460237952E+03	 4.125399902E+03
 1.460761214E+03	 4.179799805E+03
 1.461284421E+03	 4.180200195E+03
 1.461807573E+03	 4.149399902E+03
 1.462330670E+03	 4.146600098E+03
 1.462853712E+03	 4.161600098E+03
 1.463376699E+03	 4.136000000E+03
 1.463899632E+03	 4.146200195E+03
 1.464422509E+03	 4.128200195E+03
 1.464945331E+03	 4.138399902E+03
 1.465468099E+03	 4.140799805E+03
 1.465990811E+03	 4.108799805E+03
 1.466513469E+03	 4.122000000E+03
 1.467036071E+03	 4.115200195E+03
 1.467558619E+03	 4.106399902E+03
 1.468081112E+03	 4.098399902E+03
 1.468603550E+03	 4.098200195E+03
 1.469125933E+03	 4.122000000E+03
 1.469648261E+03	 4.109200195E+03
 1.470170534E+03	 4.125600098E+03
 1.470692752E+03	 4.096399902E+03
 1.471214916E+03	 4.091199951E+03
 1.471737024E+03	 4.081399902E+03
 1.472259078E+03	 4.096200195E+03
 1.472781077E+03	 4.083600098E+03
 1.473303021E+03	 4.113399902E+03
 1.473824910E+03	 4.089399902E+03
 1.474346744E+03	 4.097399902E+03
 1.474868523E+03	 4.081199951E+03
 1.475390248E+03	 4.082000000E+03
 1.475911917E+03	 4.054399902E+03
 1.476433532E+03	 4.093800049E+03
 1.476955092E+03	 4.077600098E+03
 1.477476597E+03	 4.065399902E+03
 1.477998047E+03	 4.067600098E+03
 1.478519442E+03	 4.048199951E+03
 1.479040783E+03	 4.056199951E+03
 1.479562068E+03	 4.081600098E+03
 1.480083299E+03	 4.061600098E+03
 1.480604475E+03	 4.039000000E+03
 1.481125596E+03	 4.055199951E+03
 1.481646663E+03	 4.050000000E+03
 1.482167674E+03	 4.033000000E+03
 1.482688631E+03	 4.041399902E+03
 1.483209533E+03	 4.031000000E+03
 1.483730380E+03	 4.018600098E+03
 1.484251172E+03	 4.003800049E+03
 1.484771909E+03	 4.029600098E+03
 1.485292592E+03	 4.020800049E+03
 1.485813220E+03	 4.006199951E+03
 1.486333793E+03	 3.990800049E+03
 1.486854311E+03	 3.981399902E+03
 1.487374775E+03	 4.011199951E+03
 1.487895183E+03	 4.013000000E+03
 1.488415537E+03	 3.993399902E+03
 1.488935836E+03	 4.018000000E+03
 1.489456081E+03	 4.004000000E+03
 1.489976270E+03	 4.001800049E+03
 1.490496405E+03	 3.990199951E+03
 1.491016485E+03	 3.974800049E+03
 1.491536511E+03	 3.992000000E+03
 1.492056481E+03	 3.970600098E+03
 1.492576397E+03	 3.965800049E+03
 1.493096258E+03	 3.973800049E+03
 1.493616064E+03	 3.998600098E+03
 1.494135816E+03	 3.962399902E+03
 1.494655513E+03	 3.971600098E+03
 1.495175155E+03	 3.967800049E+03
 1.495694742E+03	 3.963600098E+03
 1.496214274E+03	 3.965600098E+03
 1.496733752E+03	 3.957199951E+03
 1.497253175E+03	 3.961399902E+03
 1.497772544E+03	 3.974000000E+03
 1.498291858E+03	 3.932199951E+03
 1.498811116E+03	 3.996800049E+03
 1.499330321E+03	 3.974000000E+03
 1.499849470E+03	 3.951199951E+03
 1.500368565E+03	 3.955199951E+03
 1.500887605E+03	 3.953399902E+03
 1.501406591E+03	 3.936199951E+03
 1.501925521E+03	 3.937000000E+03
 1.502444397E+03	 3.958399902E+03
 1.502963219E+03	 3.959199951E+03
 1.503481985E+03	 3.918600098E+03
 1.504000697E+03	 3.967399902E+03
 1.504519355E+03	 3.939199951E+03
 1.505037957E+03	 3.940800049E+03
 1.505556505E+03	 3.945399902E+03
 1.506074999E+03	 3.905000000E+03
 1.506593437E+03	 3.915000000E+03
 1.507111821E+03	 3.912600098E+03
 1.507630150E+03	 3.909399902E+03
 1.508148425E+03	 3.907800049E+03
 1.508666645E+03	 3.921800049E+03
 1.509184810E+03	 3.911399902E+03
 1.509702921E+03	 3.876600098E+03
 1.510220977E+03	 3.899600098E+03
 1.510738979E+03	 3.926399902E+03
 1.511256925E+03	 3.906199951E+03
 1.511774817E+03	 3.908800049E+03
 1.512292655E+03	 3.923399902E+03
 1.512810438E+03	 3.912000000E+03
 1.513328166E+03	 3.889000000E+03
 1.513845840E+03	 3.881000000E+03
 1.514363459E+03	 3.916000000E+03
 1.514881023E+03	 3.873000000E+03
 1.515398533E+03	 3.901399902E+03
 1.515915988E+03	 3.890199951E+03
 1.516433389E+03	 3.874399902E+03
 1.516950734E+03	 3.890199951E+03
 1.517468026E+03	 3.859600098E+03
 1.517985263E+03	 3.905199951E+03
 1.518502445E+03	 3.885800049E+03
 1.519019572E+03	 3.885399902E+03
 1.519536645E+03	 3.869199951E+03
 1.520053664E+03	 3.850399902E+03
 1.520570628E+03	 3.856000000E+03
 1.521087537E+03	 3.857600098E+03
 1.521604392E+03	 3.847399902E+03
 1.522121192E+03	 3.877399902E+03
 1.522637937E+03	 3.896199951E+03
 1.523154628E+03	 3.852600098E+03
 1.523671265E+03	 3.876000000E+03
 1.524187847E+03	 3.839199951E+03
 1.524704374E+03	 3.854000000E+03
 1.525220847E+03	 3.825399902E+03
 1.525737265E+03	 3.825800049E+03
 1.526253629E+03	 3.835600098E+03
 1.526769938E+03	 3.828800049E+03
 1.527286192E+03	 3.855199951E+03
 1.527802392E+03	 3.842600098E+03
 1.528318538E+03	 3.865399902E+03
 1.528834629E+03	 3.827199951E+03
 1.529350666E+03	 3.859600098E+03
 1.529866648E+03	 3.826399902E+03
 1.530382575E+03	 3.848399902E+03
 1.530898448E+03	 3.800600098E+03
 1.531414266E+03	 3.842399902E+03
 1.531930030E+03	 3.830399902E+03
 1.532445740E+03	 3.858800049E+03
 1.532961395E+03	 3.836399902E+03
 1.533476995E+03	 3.834600098E+03
 1.533992541E+03	 3.804399902E+03
 1.534508033E+03	 3.811600098E+03
 1.535023470E+03	 3.799199951E+03
 1.535538852E+03	 3.806399902E+03
 1.536054180E+03	 3.846800049E+03
 1.536569454E+03	 3.819399902E+03
 1.537084673E+03	 3.814800049E+03
 1.537599837E+03	 3.797000000E+03
 1.538114947E+03	 3.805399902E+03
 1.538630003E+03	 3.827800049E+03
 1.539145004E+03	 3.825399902E+03
 1.539659951E+03	 3.840399902E+03
 1.540174843E+03	 3.796800049E+03
 1.540689681E+03	 3.798000000E+03
 1.541204465E+03	 3.770000000E+03
 1.541719194E+03	 3.833399902E+03
 1.542233868E+03	 3.801199951E+03
 1.542748488E+03	 3.810199951E+03
 1.543263054E+03	 3.798199951E+03
 1.543777565E+03	 3.804399902E+03
 1.544292022E+03	 3.804600098E+03
 1.544806424E+03	 3.774399902E+03
 1.545320772E+03	 3.776800049E+03
 1.545835066E+03	 3.789600098E+03
 1.546349305E+03	 3.796000000E+03
 1.546863489E+03	 3.769800049E+03
 1.547377620E+03	 3.804199951E+03
 1.547891696E+03	 3.791600098E+03
 1.548405717E+03	 3.814600098E+03
 1.548919684E+03	 3.774800049E+03
 1.549433597E+03	 3.782800049E+03
 1.549947455E+03	 3.795800049E+03
 1.550461259E+03	 3.787800049E+03
 1.550975009E+03	 3.810600098E+03
 1.551488704E+03	 3.781800049E+03
 1.552002345E+03	 3.760800049E+03
 1.552515931E+03	 3.781000000E+03
 1.553029463E+03	 3.805600098E+03
 1.553542941E+03	 3.787000000E+03
 1.554056364E+03	 3.784199951E+03
 1.554569733E+03	 3.753600098E+03
 1.555083048E+03	 3.778800049E+03
 1.555596308E+03	 3.779800049E+03
 1.556109514E+03	 3.784399902E+03
 1.556622665E+03	 3.802199951E+03
 1.557135762E+03	 3.781000000E+03
 1.557648805E+03	 3.791800049E+03
 1.558161794E+03	 3.744600098E+03
 1.558674728E+03	 3.756600098E+03
 1.559187608E+03	 3.737399902E+03
 1.559700433E+03	 3.751600098E+03
 1.560213205E+03	 3.771399902E+03
 1.560725921E+03	 3.750399902E+03
 1.561238584E+03	 3.780199951E+03
 1.561751192E+03	 3.754199951E+03
 1.562263746E+03	 3.752399902E+03
 1.562776246E+03	 3.750000000E+03
 1.563288691E+03	 3.765000000E+03
 1.563801082E+03	 3.715600098E+03
 1.564313419E+03	 3.747000000E+03
 1.564825701E+03	 3.723800049E+03
 1.565337929E+03	 3.739600098E+03
 1.565850103E+03	 3.734199951E+03
 1.566362223E+03	 3.713399902E+03
 1.566874288E+03	 3.765000000E+03
 1.567386299E+03	 3.738399902E+03
 1.567898256E+03	 3.733399902E+03
 1.568410158E+03	 3.723000000E+03
 1.568922007E+03	 3.749000000E+03
 1.569433800E+03	 3.710399902E+03
 1.569945540E+03	 3.736600098E+03
 1.570457226E+03	 3.716399902E+03
 1.570968857E+03	 3.738600098E+03
 1.571480434E+03	 3.736199951E+03
 1.571991956E+03	 3.725399902E+03
 1.572503425E+03	 3.728800049E+03
 1.573014839E+03	 3.720800049E+03
 1.573526199E+03	 3.777600098E+03
 1.574037505E+03	 3.724199951E+03
 1.574548756E+03	 3.709399902E+03
 1.575059953E+03	 3.707600098E+03
 1.575571096E+03	 3.703399902E+03
 1.576082185E+03	 3.697600098E+03
 1.576593220E+03	 3.718399902E+03
 1.577104200E+03	 3.703600098E+03
 1.577615126E+03	 3.710600098E+03
 1.578125998E+03	 3.693199951E+03
 1.578636816E+03	 3.676399902E+03
 1.579147580E+03	 3.713600098E+03
 1.579658289E+03	 3.675000000E+03
 1.580168944E+03	 3.703199951E+03
 1.580679545E+03	 3.679000000E+03
 1.581190092E+03	 3.688000000E+03
 1.581700585E+03	 3.679600098E+03
 1.582211023E+03	 3.661199951E+03
 1.582721407E+03	 3.676399902E+03
 1.583231737E+03	 3.667199951E+03
 1.583742013E+03	 3.672000000E+03
 1.584252235E+03	 3.644800049E+03
 1.584762403E+03	 3.688600098E+03
 1.585272516E+03	 3.671000000E+03
 1.585782575E+03	 3.678399902E+03
 1.586292581E+03	 3.672399902E+03
 1.586802532E+03	 3.656800049E+03
 1.587312428E+03	 3.672399902E+03
 1.587822271E+03	 3.639199951E+03
 1.588332060E+03	 3.680800049E+03
 1.588841794E+03	 3.664199951E+03
 1.589351474E+03	 3.674600098E+03
 1.589861100E+03	 3.625600098E+03
 1.590370672E+03	 3.647399902E+03
 1.590880190E+03	 3.656399902E+03
 1.591389654E+03	 3.662199951E+03
 1.591899064E+03	 3.669399902E+03
 1.592408419E+03	 3.654600098E+03
