 1.042452273E+03	 5.796399902E+03
 1.043018714E+03	 5.819799805E+03
 1.043585098E+03	 5.841399902E+03
 1.044151424E+03	 5.850600098E+03
 1.044717692E+03	 5.788600098E+03
 1.045283903E+03	 5.822200195E+03
 1.045850056E+03	 5.777000000E+03
 1.046416151E+03	 5.804600098E+03
 1.046982188E+03	 5.817600098E+03
 1.047548167E+03	 5.811799805E+03
 1.048114089E+03	 5.776799805E+03
 1.048679953E+03	 5.799799805E+03
 1.049245760E+03	 5.795000000E+03
 1.049811509E+03	 5.840600098E+03
 1.050377200E+03	 5.772600098E+03
 1.050942833E+03	 5.831200195E+03
 1.051508408E+03	 5.774000000E+03
 1.052073926E+03	 5.803600098E+03
 1.052639387E+03	 5.769799805E+03
 1.053204789E+03	 5.849200195E+03
 1.053770134E+03	 5.782799805E+03
 1.054335421E+03	 5.795200195E+03
 1.054900651E+03	 5.788600098E+03
 1.055465823E+03	 5.785600098E+03
 1.056030937E+03	 5.760600098E+03
 1.056595993E+03	 5.797000000E+03
 1.057160992E+03	 5.767399902E+03
 1.057725934E+03	 5.781399902E+03
 1.058290817E+03	 5.786600098E+03
 1.058855643E+03	 5.767399902E+03
 1.059420411E+03	 5.719000000E+03
 1.059985122E+03	 5.774200195E+03
 1.060549775E+03	 5.764600098E+03
 1.061114371E+03	 5.740200195E+03
 1.061678908E+03	 5.723600098E+03
 1.062243389E+03	 5.743200195E+03
 1.062807811E+03	 5.663000000E+03
 1.063372176E+03	 5.744200195E+03
 1.063936483E+03	 5.727799805E+03
 1.064500733E+03	 5.710000000E+03
 1.065064925E+03	 5.753200195E+03
 1.065629060E+03	 5.703200195E+03
 1.066193137E+03	 5.686000000E+03
 1.066757156E+03	 5.737200195E+03
 1.067321118E+03	 5.699799805E+03
 1.067885022E+03	 5.711399902E+03
 1.068448869E+03	 5.705799805E+03
 1.069012658E+03	 5.694200195E+03
 1.069576390E+03	 5.703799805E+03
 1.070140063E+03	 5.709799805E+03
 1.070703680E+03	 5.656000000E+03
 1.071267239E+03	 5.669200195E+03
 1.071830740E+03	 5.726000000E+03
 1.072394184E+03	 5.654600098E+03
 1.072957570E+03	 5.692000000E+03
 1.073520899E+03	 5.667600098E+03
 1.074084170E+03	 5.661200195E+03
 1.074647383E+03	 5.646200195E+03
 1.075210540E+03	 5.622000000E+03
 1.075773638E+03	 5.659000000E+03
 1.076336679E+03	 5.648200195E+03
 1.076899663E+03	 5.641600098E+03
 1.077462589E+03	 5.655600098E+03
 1.078025457E+03	 5.635600098E+03
 1.078588268E+03	 5.659399902E+03
 1.079151022E+03	 5.658200195E+03
 1.079713718E+03	 5.641799805E+03
 1.080276356E+03	 5.609200195E+03
 1.080838937E+03	 5.590799805E+03
 1.081401461E+03	 5.632200195E+03
 1.081963927E+03	 5.584000000E+03
 1.082526336E+03	 5.608399902E+03
 1.083088687E+03	 5.615799805E+03
 1.083650981E+03	 5.592600098E+03
 1.084213217E+03	 5.554399902E+03
 1.084775396E+03	 5.559399902E+03
 1.085337517E+03	 5.557799805E+03
 1.085899581E+03	 5.543200195E+03
 1.086461587E+03	 5.559399902E+03
 1.087023536E+03	 5.566200195E+03
 1.087585428E+03	 5.538399902E+03
 1.088147262E+03	 5.543399902E+03
 1.088709039E+03	 5.567000000E+03
 1.089270758E+03	 5.539799805E+03
 1.089832420E+03	 5.519799805E+03
 1.090394024E+03	 5.541799805E+03
 1.090955571E+03	 5.523799805E+03
 1.091517061E+03	 5.529000000E+03
 1.092078493E+03	 5.493600098E+03
 1.092639868E+03	 5.462799805E+03
 1.093201185E+03	 5.525799805E+03
 1.093762445E+03	 5.480399902E+03
 1.094323648E+03	 5.489000000E+03
 1.094884793E+03	 5.526799805E+03
 1.095445881E+03	 5.469799805E+03
 1.096006911E+03	 5.463799805E+03
 1.096567884E+03	 5.469799805E+03
 1.097128800E+03	 5.469000000E+03
 1.097689659E+03	 5.433000000E+03
 1.098250460E+03	 5.445399902E+03
 1.098811203E+03	 5.459200195E+03
 1.099371890E+03	 5.433799805E+03
 1.099932518E+03	 5.426399902E+03
 1.100493090E+03	 5.446200195E+03
 1.101053604E+03	 5.447799805E+03
 1.101614061E+03	 5.431000000E+03
 1.102174461E+03	 5.415399902E+03
 1.102734803E+03	 5.414000000E+03
 1.103295088E+03	 5.353399902E+03
 1.103855316E+03	 5.393000000E+03
 1.104415486E+03	 5.406399902E+03
 1.104975599E+03	 5.381799805E+03
 1.105535655E+03	 5.364200195E+03
 1.106095653E+03	 5.353600098E+03
 1.106655594E+03	 5.346600098E+03
 1.107215478E+03	 5.327200195E+03
 1.107775305E+03	 5.317799805E+03
 1.108335074E+03	 5.323399902E+03
 1.108894786E+03	 5.309000000E+03
 1.109454440E+03	 5.354200195E+03
 1.110014038E+03	 5.327799805E+03
 1.110573578E+03	 5.350799805E+03
 1.111133061E+03	 5.364399902E+03
 1.111692486E+03	 5.370200195E+03
 1.112251854E+03	 5.334600098E+03
 1.112811165E+03	 5.338600098E+03
 1.113370419E+03	 5.313000000E+03
 1.113929616E+03	 5.328000000E+03
 1.114488755E+03	 5.304799805E+03
 1.115047837E+03	 5.323000000E+03
 1.115606862E+03	 5.295200195E+03
 1.116165830E+03	 5.320399902E+03
 1.116724740E+03	 5.290000000E+03
 1.117283593E+03	 5.313799805E+03
 1.117842389E+03	 5.282200195E+03
 1.118401128E+03	 5.291200195E+03
 1.118959809E+03	 5.265200195E+03
 1.119518433E+03	 5.256399902E+03
 1.120077000E+03	 5.248399902E+03
 1.120635510E+03	 5.237799805E+03
 1.121193963E+03	 5.280399902E+03
 1.121752358E+03	 5.301000000E+03
 1.122310697E+03	 5.243600098E+03
 1.122868978E+03	 5.253399902E+03
 1.123427202E+03	 5.258399902E+03
 1.123985368E+03	 5.258200195E+03
 1.124543478E+03	 5.249600098E+03
 1.125101530E+03	 5.231200195E+03
 1.125659526E+03	 5.234799805E+03
 1.126217464E+03	 5.223200195E+03
 1.126775345E+03	 5.258399902E+03
 1.127333168E+03	 5.249600098E+03
 1.127890935E+03	 5.238000000E+03
 1.128448644E+03	 5.212399902E+03
 1.129006297E+03	 5.206399902E+03
 1.129563892E+03	 5.223000000E+03
 1.130121430E+03	 5.223200195E+03
 1.130678911E+03	 5.236600098E+03
 1.131236335E+03	 5.212600098E+03
 1.131793701E+03	 5.207600098E+03
 1.132351011E+03	 5.211799805E+03
 1.132908263E+03	 5.211600098E+03
 1.133465458E+03	 5.193200195E+03
 1.134022597E+03	 5.195200195E+03
 1.134579678E+03	 5.193399902E+03
 1.135136702E+03	 5.192000000E+03
 1.135693669E+03	 5.221200195E+03
 1.136250578E+03	 5.202799805E+03
 1.136807431E+03	 5.209000000E+03
 1.137364227E+03	 5.229000000E+03
 1.137920965E+03	 5.238799805E+03
 1.138477647E+03	 5.213000000E+03
 1.139034271E+03	 5.181000000E+03
 1.139590839E+03	 5.180399902E+03
 1.140147349E+03	 5.195399902E+03
 1.140703802E+03	 5.217799805E+03
 1.141260198E+03	 5.180399902E+03
 1.141816537E+03	 5.225799805E+03
 1.142372820E+03	 5.193399902E+03
 1.142929045E+03	 5.198200195E+03
 1.143485213E+03	 5.168799805E+03
 1.144041323E+03	 5.197600098E+03
 1.144597377E+03	 5.192000000E+03
 1.145153374E+03	 5.178200195E+03
 1.145709314E+03	 5.165200195E+03
 1.146265197E+03	 5.198399902E+03
 1.146821023E+03	 5.181000000E+03
 1.147376792E+03	 5.192600098E+03
 1.147932503E+03	 5.184399902E+03
 1.148488158E+03	 5.197600098E+03
 1.149043756E+03	 5.171399902E+03
 1.149599297E+03	 5.182799805E+03
 1.150154781E+03	 5.134200195E+03
 1.150710207E+03	 5.180600098E+03
 1.151265577E+03	 5.142200195E+03
 1.151820890E+03	 5.188799805E+03
 1.152376146E+03	 5.192600098E+03
 1.152931345E+03	 5.227200195E+03
 1.153486487E+03	 5.135600098E+03
 1.154041572E+03	 5.131799805E+03
 1.154596600E+03	 5.157200195E+03
 1.155151571E+03	 5.193399902E+03
 1.155706485E+03	 5.160000000E+03
 1.156261342E+03	 5.169799805E+03
 1.156816142E+03	 5.159600098E+03
 1.157370885E+03	 5.186600098E+03
 1.157925572E+03	 5.182200195E+03
 1.158480201E+03	 5.165600098E+03
 1.159034774E+03	 5.160399902E+03
 1.159589289E+03	 5.196200195E+03
 1.160143748E+03	 5.166399902E+03
 1.160698149E+03	 5.141000000E+03
 1.161252494E+03	 5.148000000E+03
 1.161806782E+03	 5.152000000E+03
 1.162361013E+03	 5.113399902E+03
 1.162915187E+03	 5.141000000E+03
 1.163469304E+03	 5.160799805E+03
 1.164023364E+03	 5.130600098E+03
 1.164577368E+03	 5.132799805E+03
 1.165131314E+03	 5.164200195E+03
 1.165685204E+03	 5.128200195E+03
 1.166239036E+03	 5.131600098E+03
 1.166792812E+03	 5.112799805E+03
 1.167346531E+03	 5.148799805E+03
 1.167900193E+03	 5.129600098E+03
 1.168453798E+03	 5.129600098E+03
 1.169007347E+03	 5.154799805E+03
 1.169560838E+03	 5.122200195E+03
 1.170114273E+03	 5.148399902E+03
 1.170667650E+03	 5.108200195E+03
 1.171220971E+03	 5.104600098E+03
 1.171774235E+03	 5.116200195E+03
 1.172327443E+03	 5.118399902E+03
 1.172880593E+03	 5.136799805E+03
 1.173433687E+03	 5.151000000E+03
 1.173986723E+03	 5.099399902E+03
 1.174539703E+03	 5.095399902E+03
 1.175092626E+03	 5.070200195E+03
 1.175645493E+03	 5.146600098E+03
 1.176198302E+03	 5.078600098E+03
 1.176751055E+03	 5.085000000E+03
 1.177303751E+03	 5.065399902E+03
 1.177856390E+03	 5.105600098E+03
 1.178408972E+03	 5.089000000E+03
 1.178961498E+03	 5.099799805E+03
 1.179513966E+03	 5.031600098E+03
 1.180066378E+03	 5.062799805E+03
 1.180618733E+03	 5.037399902E+03
 1.181171032E+03	 5.081000000E+03
 1.181723273E+03	 5.059200195E+03
 1.182275458E+03	 5.088399902E+03
 1.182827586E+03	 5.068200195E+03
 1.183379657E+03	 5.043200195E+03
 1.183931672E+03	 5.024799805E+03
 1.184483630E+03	 5.074200195E+03
 1.185035531E+03	 5.084200195E+03
 1.185587375E+03	 5.027799805E+03
 1.186139162E+03	 5.038600098E+03
 1.186690893E+03	 5.032200195E+03
 1.187242567E+03	 5.064200195E+03
 1.187794184E+03	 5.040200195E+03
 1.188345745E+03	 4.999600098E+03
 1.188897249E+03	 5.013200195E+03
 1.189448696E+03	 5.007600098E+03
 1.190000086E+03	 5.007000000E+03
 1.190551420E+03	 5.025799805E+03
 1.191102697E+03	 5.025799805E+03
 1.191653918E+03	 5.016399902E+03
 1.192205081E+03	 5.004200195E+03
 1.192756188E+03	 5.024000000E+03
 1.193307238E+03	 5.008200195E+03
 1.193858232E+03	 4.978200195E+03
 1.194409169E+03	 4.950799805E+03
 1.194960049E+03	 5.006799805E+03
 1.195510872E+03	 4.998799805E+03
 1.196061639E+03	 4.985399902E+03
 1.196612349E+03	 4.992600098E+03
 1.197163003E+03	 5.007799805E+03
 1.197713599E+03	 4.977000000E+03
 1.198264139E+03	 4.980600098E+03
 1.198814623E+03	 4.953200195E+03
 1.199365050E+03	 4.973399902E+03
 1.199915420E+03	 4.991399902E+03
 1.200465734E+03	 4.967200195E+03
 1.201015990E+03	 4.938600098E+03
 1.201566191E+03	 4.964799805E+03
 1.202116334E+03	 4.951799805E+03
 1.202666421E+03	 4.967399902E+03
 1.203216452E+03	 4.958799805E+03
 1.203766425E+03	 4.934000000E+03
 1.204316343E+03	 4.923799805E+03
 1.204866203E+03	 4.940200195E+03
 1.205416007E+03	 4.979399902E+03
 1.205965754E+03	 4.965600098E+03
 1.206515445E+03	 4.940200195E+03
 1.207065079E+03	 4.930399902E+03
 1.207614657E+03	 4.963399902E+03
 1.208164177E+03	 4.929799805E+03
 1.208713642E+03	 4.925399902E+03
 1.209263050E+03	 4.921200195E+03
 1.209812401E+03	 4.951600098E+03
 1.210361695E+03	 4.914799805E+03
 1.210910933E+03	 4.910000000E+03
 1.211460115E+03	 4.882600098E+03
 1.212009240E+03	 4.915399902E+03
 1.212558308E+03	 4.888600098E+03
 1.213107320E+03	 4.920200195E+03
 1.213656275E+03	 4.870600098E+03
 1.214205174E+03	 4.918200195E+03
 1.214754016E+03	 4.887399902E+03
 1.215302801E+03	 4.936200195E+03
 1.215851530E+03	 4.866000000E+03
 1.216400203E+03	 4.879799805E+03
 1.216948819E+03	 4.895399902E+03
 1.217497378E+03	 4.911600098E+03
 1.218045881E+03	 4.866000000E+03
 1.218594327E+03	 4.875200195E+03
 1.219142717E+03	 4.854000000E+03
 1.219691051E+03	 4.820399902E+03
 1.220239327E+03	 4.870399902E+03
 1.220787548E+03	 4.831000000E+03
 1.221335712E+03	 4.855000000E+03
 1.221883819E+03	 4.819399902E+03
 1.222431870E+03	 4.843600098E+03
 1.222979864E+03	 4.866000000E+03
 1.223527802E+03	 4.864600098E+03
 1.224075683E+03	 4.829200195E+03
 1.224623508E+03	 4.842000000E+03
 1.225171277E+03	 4.854399902E+03
 1.225718989E+03	 4.839399902E+03
 1.226266644E+03	 4.807799805E+03
 1.226814243E+03	 4.839399902E+03
 1.227361786E+03	 4.827799805E+03
 1.227909272E+03	 4.860799805E+03
 1.228456702E+03	 4.791200195E+03
 1.229004075E+03	 4.824200195E+03
 1.229551392E+03	 4.814200195E+03
 1.230098652E+03	 4.831799805E+03
 1.230645856E+03	 4.801799805E+03
 1.231193003E+03	 4.795799805E+03
 1.231740094E+03	 4.772200195E+03
 1.232287129E+03	 4.801799805E+03
 1.232834107E+03	 4.781799805E+03
 1.233381029E+03	 4.810600098E+03
 1.233927894E+03	 4.797000000E+03
 1.234474703E+03	 4.798200195E+03
 1.235021455E+03	 4.819799805E+03
 1.235568151E+03	 4.790799805E+03
 1.236114791E+03	 4.806000000E+03
 1.236661374E+03	 4.765399902E+03
 1.237207901E+03	 4.813200195E+03
 1.237754372E+03	 4.779600098E+03
 1.238300786E+03	 4.763200195E+03
 1.238847144E+03	 4.724600098E+03
 1.239393445E+03	 4.786000000E+03
 1.239939690E+03	 4.735600098E+03
 1.240485879E+03	 4.756799805E+03
 1.241032011E+03	 4.760799805E+03
 1.241578087E+03	 4.787000000E+03
 1.242124106E+03	 4.753399902E+03
 1.242670070E+03	 4.782399902E+03
 1.243215976E+03	 4.749200195E+03
 1.243761827E+03	 4.760200195E+03
 1.244307621E+03	 4.751399902E+03
 1.244853359E+03	 4.773399902E+03
 1.245399040E+03	 4.744000000E+03
 1.245944665E+03	 4.753399902E+03
 1.246490234E+03	 4.745000000E+03
 1.247035746E+03	 4.758600098E+03
 1.247581203E+03	 4.721399902E+03
 1.248126602E+03	 4.704200195E+03
 1.248671946E+03	 4.718600098E+03
 1.249217233E+03	 4.787600098E+03
 1.249762464E+03	 4.711600098E+03
 1.250307638E+03	 4.745200195E+03
 1.250852757E+03	 4.726200195E+03
 1.251397819E+03	 4.725399902E+03
 1.251942824E+03	 4.740200195E+03
 1.252487774E+03	 4.692399902E+03
 1.253032667E+03	 4.715200195E+03
 1.253577503E+03	 4.707000000E+03
 1.254122284E+03	 4.709399902E+03
 1.254667008E+03	 4.693799805E+03
 1.255211676E+03	 4.685200195E+03
 1.255756288E+03	 4.668799805E+03
 1.256300843E+03	 4.728600098E+03
 1.256845342E+03	 4.677200195E+03
 1.257389785E+03	 4.689399902E+03
 1.257934172E+03	 4.645000000E+03
 1.258478502E+03	 4.724600098E+03
 1.259022776E+03	 4.690399902E+03
 1.259566994E+03	 4.701799805E+03
 1.260111156E+03	 4.693600098E+03
 1.260655261E+03	 4.699600098E+03
 1.261199311E+03	 4.656399902E+03
 1.261743304E+03	 4.657000000E+03
 1.262287240E+03	 4.685799805E+03
 1.262831121E+03	 4.693000000E+03
 1.263374945E+03	 4.656200195E+03
 1.263918713E+03	 4.687399902E+03
 1.264462425E+03	 4.673200195E+03
 1.265006081E+03	 4.662799805E+03
 1.265549680E+03	 4.647000000E+03
 1.266093223E+03	 4.673000000E+03
 1.266636711E+03	 4.623200195E+03
 1.267180141E+03	 4.644000000E+03
 1.267723516E+03	 4.660600098E+03
 1.268266835E+03	 4.657200195E+03
 1.268810097E+03	 4.677000000E+03
 1.269353303E+03	 4.617600098E+03
 1.269896453E+03	 4.612399902E+03
 1.270439547E+03	 4.630000000E+03
 1.270982584E+03	 4.641399902E+03
 1.271525566E+03	 4.606799805E+03
 1.272068491E+03	 4.628200195E+03
 1.272611360E+03	 4.590600098E+03
 1.273154173E+03	 4.626200195E+03
 1.273696930E+03	 4.615000000E+03
 1.274239631E+03	 4.672399902E+03
 1.274782275E+03	 4.627399902E+03
 1.275324864E+03	 4.637600098E+03
 1.275867396E+03	 4.611000000E+03
 1.276409872E+03	 4.622000000E+03
 1.276952292E+03	 4.575799805E+03
 1.277494656E+03	 4.662200195E+03
 1.278036964E+03	 4.600200195E+03
 1.278579215E+03	 4.611200195E+03
 1.279121411E+03	 4.615000000E+03
 1.279663550E+03	 4.609399902E+03
 1.280205634E+03	 4.599600098E+03
 1.280747661E+03	 4.630600098E+03
 1.281289632E+03	 4.594000000E+03
 1.281831547E+03	 4.584600098E+03
 1.282373406E+03	 4.608000000E+03
 1.282915209E+03	 4.580000000E+03
 1.283456955E+03	 4.586200195E+03
 1.283998646E+03	 4.602600098E+03
 1.284540281E+03	 4.562200195E+03
 1.285081859E+03	 4.593200195E+03
 1.285623381E+03	 4.603000000E+03
 1.286164848E+03	 4.569600098E+03
 1.286706258E+03	 4.626000000E+03
 1.287247612E+03	 4.565399902E+03
 1.287788911E+03	 4.575600098E+03
 1.288330153E+03	 4.539799805E+03
 1.288871339E+03	 4.548200195E+03
 1.289412469E+03	 4.541600098E+03
 1.289953543E+03	 4.574399902E+03
 1.290494561E+03	 4.517200195E+03
 1.291035523E+03	 4.567000000E+03
 1.291576428E+03	 4.526200195E+03
 1.292117278E+03	 4.530399902E+03
 1.292658072E+03	 4.532799805E+03
 1.293198810E+03	 4.531399902E+03
 1.293739492E+03	 4.521600098E+03
 1.294280118E+03	 4.550200195E+03
 1.294820687E+03	 4.543799805E+03
 1.295361201E+03	 4.509399902E+03
 1.295901659E+03	 4.541399902E+03
 1.296442061E+03	 4.533200195E+03
 1.296982406E+03	 4.506399902E+03
 1.297522696E+03	 4.513600098E+03
 1.298062930E+03	 4.511399902E+03
 1.298603108E+03	 4.506000000E+03
 1.299143229E+03	 4.532200195E+03
 1.299683295E+03	 4.514399902E+03
 1.300223305E+03	 4.493799805E+03
 1.300763259E+03	 4.504000000E+03
 1.301303157E+03	 4.508399902E+03
 1.301842999E+03	 4.496399902E+03
 1.302382785E+03	 4.475799805E+03
 1.302922515E+03	 4.449600098E+03
 1.303462189E+03	 4.535799805E+03
 1.304001807E+03	 4.516799805E+03
 1.304541369E+03	 4.502399902E+03
 1.305080875E+03	 4.496799805E+03
 1.305620326E+03	 4.525799805E+03
 1.306159720E+03	 4.469399902E+03
 1.306699058E+03	 4.470799805E+03
 1.307238341E+03	 4.481799805E+03
 1.307777567E+03	 4.495200195E+03
 1.308316738E+03	 4.420600098E+03
 1.308855853E+03	 4.474000000E+03
 1.309394912E+03	 4.452600098E+03
 1.309933915E+03	 4.493399902E+03
 1.310472862E+03	 4.498399902E+03
 1.311011753E+03	 4.447200195E+03
 1.311550588E+03	 4.446799805E+03
 1.312089367E+03	 4.454200195E+03
 1.312628090E+03	 4.453000000E+03
 1.313166758E+03	 4.427799805E+03
 1.313705370E+03	 4.479799805E+03
 1.314243925E+03	 4.467799805E+03
 1.314782425E+03	 4.460399902E+03
 1.315320869E+03	 4.417000000E+03
 1.315859257E+03	 4.456600098E+03
 1.316397589E+03	 4.432000000E+03
 1.316935866E+03	 4.454600098E+03
 1.317474086E+03	 4.415600098E+03
 1.318012251E+03	 4.440799805E+03
 1.318550360E+03	 4.427200195E+03
 1.319088413E+03	 4.429000000E+03
 1.319626410E+03	 4.413000000E+03
 1.320164351E+03	 4.449000000E+03
 1.320702236E+03	 4.415200195E+03
 1.321240066E+03	 4.412600098E+03
 1.321777839E+03	 4.407399902E+03
 1.322315557E+03	 4.392399902E+03
 1.322853219E+03	 4.466000000E+03
 1.323390826E+03	 4.410600098E+03
 1.323928376E+03	 4.357600098E+03
 1.324465871E+03	 4.395000000E+03
 1.325003309E+03	 4.404600098E+03
 1.325540692E+03	 4.410799805E+03
 1.326078020E+03	 4.436000000E+03
 1.326615291E+03	 4.384399902E+03
 1.327152506E+03	 4.422399902E+03
 1.327689666E+03	 4.360600098E+03
 1.328226770E+03	 4.404799805E+03
 1.328763818E+03	 4.388399902E+03
 1.329300811E+03	 4.388200195E+03
 1.329837747E+03	 4.406200195E+03
 1.330374628E+03	 4.405399902E+03
 1.330911453E+03	 4.358600098E+03
 1.331448222E+03	 4.359799805E+03
 1.331984936E+03	 4.337600098E+03
 1.332521594E+03	 4.350600098E+03
 1.333058196E+03	 4.376799805E+03
 1.333594742E+03	 4.381600098E+03
 1.334131232E+03	 4.374399902E+03
 1.334667667E+03	 4.335399902E+03
 1.335204046E+03	 4.363600098E+03
 1.335740369E+03	 4.363799805E+03
 1.336276637E+03	 4.355799805E+03
 1.336812848E+03	 4.345000000E+03
 1.337349004E+03	 4.325799805E+03
 1.337885105E+03	 4.377000000E+03
 1.338421149E+03	 4.374600098E+03
 1.338957138E+03	 4.327399902E+03
 1.339493071E+03	 4.352799805E+03
 1.340028949E+03	 4.332600098E+03
 1.340564770E+03	 4.359000000E+03
 1.341100536E+03	 4.324600098E+03
 1.341636246E+03	 4.330399902E+03
 1.342171901E+03	 4.329000000E+03
 1.342707500E+03	 4.350600098E+03
 1.343243043E+03	 4.303000000E+03
 1.343778530E+03	 4.308200195E+03
 1.344313962E+03	 4.321000000E+03
 1.344849338E+03	 4.311399902E+03
 1.345384659E+03	 4.331399902E+03
 1.345919923E+03	 4.307600098E+03
 1.346455133E+03	 4.310000000E+03
 1.346990286E+03	 4.311000000E+03
 1.347525384E+03	 4.346799805E+03
 1.348060426E+03	 4.300600098E+03
 1.348595412E+03	 4.311200195E+03
 1.349130343E+03	 4.283799805E+03
 1.349665218E+03	 4.316200195E+03
 1.350200037E+03	 4.263600098E+03
 1.350734801E+03	 4.325799805E+03
 1.351269509E+03	 4.304600098E+03
 1.351804162E+03	 4.324399902E+03
 1.352338758E+03	 4.286000000E+03
 1.352873300E+03	 4.282000000E+03
 1.353407785E+03	 4.302799805E+03
 1.353942215E+03	 4.263000000E+03
 1.354476589E+03	 4.253600098E+03
 1.355010908E+03	 4.273200195E+03
 1.355545171E+03	 4.269399902E+03
 1.356079379E+03	 4.262200195E+03
 1.356613530E+03	 4.291399902E+03
 1.357147627E+03	 4.262799805E+03
 1.357681667E+03	 4.248600098E+03
 1.358215652E+03	 4.245600098E+03
 1.358749582E+03	 4.278000000E+03
 1.359283456E+03	 4.256200195E+03
 1.359817274E+03	 4.249200195E+03
 1.360351037E+03	 4.239799805E+03
 1.360884744E+03	 4.253200195E+03
 1.361418395E+03	 4.199600098E+03
 1.361951991E+03	 4.260799805E+03
 1.362485531E+03	 4.258200195E+03
 1.363019016E+03	 4.268399902E+03
 1.363552445E+03	 4.221399902E+03
 1.364085819E+03	 4.255799805E+03
 1.364619137E+03	 4.270200195E+03
 1.365152400E+03	 4.256799805E+03
 1.365685607E+03	 4.249000000E+03
 1.366218758E+03	 4.225000000E+03
 1.366751854E+03	 4.242600098E+03
 1.367284894E+03	 4.223600098E+03
 1.367817879E+03	 4.267000000E+03
 1.368350808E+03	 4.227799805E+03
 1.368883682E+03	 4.235799805E+03
 1.369416500E+03	 4.222600098E+03
 1.369949263E+03	 4.226200195E+03
 1.370481970E+03	 4.202600098E+03
 1.371014622E+03	 4.224399902E+03
 1.371547218E+03	 4.178799805E+03
 1.372079758E+03	 4.228200195E+03
 1.372612244E+03	 4.203399902E+03
 1.373144673E+03	 4.201600098E+03
 1.373677047E+03	 4.237399902E+03
 1.374209366E+03	 4.212000000E+03
 1.374741629E+03	 4.204799805E+03
 1.375273836E+03	 4.207200195E+03
 1.375805989E+03	 4.217200195E+03
 1.376338085E+03	 4.157200195E+03
 1.376870126E+03	 4.208600098E+03
 1.377402112E+03	 4.169200195E+03
 1.377934042E+03	 4.188600098E+03
 1.378465917E+03	 4.172799805E+03
 1.378997736E+03	 4.167399902E+03
 1.379529500E+03	 4.163200195E+03
 1.380061208E+03	 4.203200195E+03
 1.380592861E+03	 4.181799805E+03
 1.381124459E+03	 4.187799805E+03
 1.381656000E+03	 4.165799805E+03
 1.382187487E+03	 4.173600098E+03
 1.382718918E+03	 4.172600098E+03
 1.383250294E+03	 4.169000000E+03
 1.383781614E+03	 4.181600098E+03
 1.384312879E+03	 4.135000000E+03
 1.384844088E+03	 4.195799805E+03
 1.385375242E+03	 4.136000000E+03
 1.385906340E+03	 4.179000000E+03
 1.386437383E+03	 4.158399902E+03
 1.386968371E+03	 4.176200195E+03
 1.387499303E+03	 4.179200195E+03
 1.388030180E+03	 4.174600098E+03
 1.388561001E+03	 4.134600098E+03
 1.389091767E+03	 4.225799805E+03
 1.389622478E+03	 4.207200195E+03
 1.390153133E+03	 4.148200195E+03
 1.390683733E+03	 4.145200195E+03
 1.391214277E+03	 4.124600098E+03
 1.391744766E+03	 4.152200195E+03
 1.392275200E+03	 4.145200195E+03
 1.392805578E+03	 4.139799805E+03
 1.393335901E+03	 4.127799805E+03
 1.393866168E+03	 4.146200195E+03
 1.394396381E+03	 4.141399902E+03
 1.394926537E+03	 4.118399902E+03
 1.395456639E+03	 4.143000000E+03
 1.395986685E+03	 4.147000000E+03
 1.396516675E+03	 4.128200195E+03
 1.397046611E+03	 4.145799805E+03
 1.397576491E+03	 4.120000000E+03
 1.398106315E+03	 4.136799805E+03
 1.398636084E+03	 4.115799805E+03
 1.399165798E+03	 4.153000000E+03
 1.399695457E+03	 4.100600098E+03
 1.400225060E+03	 4.126799805E+03
 1.400754608E+03	 4.127000000E+03
 1.401284101E+03	 4.098799805E+03
 1.401813538E+03	 4.141399902E+03
 1.402342920E+03	 4.129799805E+03
 1.402872247E+03	 4.158799805E+03
 1.403401518E+03	 4.116399902E+03
 1.403930734E+03	 4.134200195E+03
 1.404459895E+03	 4.109600098E+03
 1.404989000E+03	 4.103000000E+03
 1.405518050E+03	 4.073399902E+03
 1.406047045E+03	 4.118200195E+03
 1.406575984E+03	 4.116799805E+03
 1.407104869E+03	 4.103799805E+03
 1.407633697E+03	 4.105200195E+03
 1.408162471E+03	 4.108600098E+03
 1.408691189E+03	 4.086600098E+03
 1.409219852E+03	 4.098600098E+03
 1.409748460E+03	 4.128799805E+03
 1.410277013E+03	 4.119799805E+03
 1.410805510E+03	 4.080199951E+03
 1.411333952E+03	 4.079199951E+03
 1.411862339E+03	 4.080199951E+03
 1.412390670E+03	 4.061000000E+03
 1.412918946E+03	 4.110399902E+03
 1.413447167E+03	 4.090600098E+03
 1.413975333E+03	 4.101200195E+03
 1.414503444E+03	 4.087399902E+03
 1.415031499E+03	 4.096200195E+03
 1.415559499E+03	 4.056600098E+03
 1.416087444E+03	 4.051000000E+03
 1.416615333E+03	 4.046399902E+03
 1.417143167E+03	 4.082800049E+03
 1.417670947E+03	 4.068800049E+03
 1.418198670E+03	 4.099600098E+03
 1.418726339E+03	 4.059199951E+03
 1.419253952E+03	 4.088800049E+03
 1.419781511E+03	 4.074000000E+03
 1.420309014E+03	 4.065600098E+03
 1.420836461E+03	 4.066600098E+03
 1.421363854E+03	 4.063000000E+03
 1.421891191E+03	 4.077600098E+03
 1.422418474E+03	 4.086600098E+03
 1.422945701E+03	 4.081600098E+03
 1.423472872E+03	 4.069600098E+03
 1.423999989E+03	 4.093399902E+03
 1.424527050E+03	 4.056199951E+03
 1.425054057E+03	 4.050800049E+03
 1.425581008E+03	 4.063800049E+03
 1.426107904E+03	 4.073600098E+03
 1.426634745E+03	 4.052000000E+03
 1.427161530E+03	 4.030000000E+03
 1.427688261E+03	 4.053800049E+03
 1.428214936E+03	 4.039800049E+03
 1.428741556E+03	 4.036199951E+03
 1.429268121E+03	 4.031800049E+03
 1.429794631E+03	 4.059000000E+03
 1.430321085E+03	 4.030600098E+03
 1.430847485E+03	 4.055399902E+03
 1.431373829E+03	 4.059399902E+03
 1.431900118E+03	 4.028399902E+03
 1.432426353E+03	 4.029000000E+03
 1.432952532E+03	 4.055600098E+03
 1.433478655E+03	 4.038199951E+03
 1.434004724E+03	 3.990000000E+03
 1.434530738E+03	 4.040199951E+03
 1.435056696E+03	 4.024600098E+03
 1.435582600E+03	 4.008199951E+03
 1.436108448E+03	 4.009000000E+03
 1.436634241E+03	 4.017800049E+03
 1.437159979E+03	 4.002600098E+03
 1.437685662E+03	 4.024199951E+03
 1.438211290E+03	 4.015800049E+03
 1.438736863E+03	 4.026399902E+03
 1.439262381E+03	 4.000600098E+03
 1.439787843E+03	 4.010600098E+03
 1.440313251E+03	 3.996600098E+03
 1.440838603E+03	 3.975000000E+03
 1.441363900E+03	 3.988199951E+03
 1.441889143E+03	 3.992399902E+03
 1.442414330E+03	 4.011000000E+03
 1.442939462E+03	 3.995000000E+03
 1.443464539E+03	 3.967600098E+03
 1.443989561E+03	 3.988600098E+03
 1.444514528E+03	 3.977399902E+03
 1.445039440E+03	 3.981000000E+03
 1.445564297E+03	 3.980199951E+03
 1.446089099E+03	 3.982000000E+03
 1.446613846E+03	 3.969199951E+03
 1.447138537E+03	 3.981600098E+03
 1.447663174E+03	 3.986800049E+03
 1.448187756E+03	 3.962600098E+03
 1.448712282E+03	 3.966199951E+03
 1.449236754E+03	 3.966000000E+03
 1.449761171E+03	 3.993800049E+03
 1.450285532E+03	 3.923600098E+03
 1.450809839E+03	 3.949199951E+03
 1.451334090E+03	 3.941199951E+03
 1.451858287E+03	 3.943000000E+03
 1.452382428E+03	 3.957199951E+03
 1.452906515E+03	 3.963399902E+03
 1.453430546E+03	 3.948800049E+03
 1.453954523E+03	 3.945600098E+03
 1.454478444E+03	 3.921600098E+03
 1.455002311E+03	 3.965000000E+03
 1.455526123E+03	 3.981199951E+03
 1.456049879E+03	 3.952000000E+03
 1.456573581E+03	 3.935600098E+03
 1.457097227E+03	 3.957600098E+03
 1.457620819E+03	 3.916000000E+03
 1.458144356E+03	 3.940199951E+03
 1.458667837E+03	 3.925600098E+03
 1.459191264E+03	 3.940600098E+03
 1.459714636E+03	 3.940800049E+03
 1.460237952E+03	 3.925600098E+03
 1.460761214E+03	 3.945199951E+03
 1.461284421E+03	 3.947800049E+03
 1.461807573E+03	 3.916600098E+03
 1.462330670E+03	 3.935199951E+03
 1.462853712E+03	 3.905000000E+03
 1.463376699E+03	 3.905399902E+03
 1.463899632E+03	 3.964600098E+03
 1.464422509E+03	 3.895000000E+03
 1.464945331E+03	 3.950800049E+03
 1.465468099E+03	 3.925600098E+03
 1.465990811E+03	 3.925199951E+03
 1.466513469E+03	 3.909399902E+03
 1.467036071E+03	 3.930199951E+03
 1.467558619E+03	 3.899800049E+03
 1.468081112E+03	 3.909199951E+03
 1.468603550E+03	 3.904000000E+03
 1.469125933E+03	 3.906000000E+03
 1.469648261E+03	 3.901000000E+03
 1.470170534E+03	 3.902600098E+03
 1.470692752E+03	 3.897000000E+03
 1.471214916E+03	 3.908800049E+03
 1.471737024E+03	 3.888800049E+03
 1.472259078E+03	 3.870800049E+03
 1.472781077E+03	 3.873199951E+03
 1.473303021E+03	 3.878199951E+03
 1.473824910E+03	 3.925600098E+03
 1.474346744E+03	 3.897600098E+03
 1.474868523E+03	 3.868199951E+03
 1.475390248E+03	 3.860600098E+03
 1.475911917E+03	 3.882800049E+03
 1.476433532E+03	 3.876600098E+03
 1.476955092E+03	 3.884399902E+03
 1.477476597E+03	 3.842000000E+03
 1.477998047E+03	 3.885000000E+03
 1.478519442E+03	 3.862399902E+03
 1.479040783E+03	 3.832600098E+03
 1.479562068E+03	 3.849600098E+03
 1.480083299E+03	 3.835199951E+03
 1.480604475E+03	 3.857399902E+03
 1.481125596E+03	 3.882199951E+03
 1.481646663E+03	 3.868000000E+03
 1.482167674E+03	 3.811199951E+03
 1.482688631E+03	 3.854000000E+03
 1.483209533E+03	 3.834600098E+03
 1.483730380E+03	 3.848600098E+03
 1.484251172E+03	 3.819600098E+03
 1.484771909E+03	 3.827600098E+03
 1.485292592E+03	 3.845600098E+03
 1.485813220E+03	 3.827800049E+03
 1.486333793E+03	 3.827800049E+03
 1.486854311E+03	 3.812800049E+03
 1.487374775E+03	 3.821199951E+03
 1.487895183E+03	 3.839199951E+03
 1.488415537E+03	 3.806399902E+03
 1.488935836E+03	 3.805399902E+03
 1.489456081E+03	 3.807399902E+03
 1.489976270E+03	 3.797199951E+03
 1.490496405E+03	 3.823600098E+03
 1.491016485E+03	 3.781800049E+03
 1.491536511E+03	 3.796399902E+03
 1.492056481E+03	 3.785199951E+03
 1.492576397E+03	 3.793199951E+03
 1.493096258E+03	 3.810800049E+03
 1.493616064E+03	 3.818800049E+03
 1.494135816E+03	 3.814800049E+03
 1.494655513E+03	 3.787399902E+03
 1.495175155E+03	 3.806000000E+03
 1.495694742E+03	 3.779199951E+03
 1.496214274E+03	 3.794199951E+03
 1.496733752E+03	 3.790199951E+03
 1.497253175E+03	 3.786199951E+03
 1.497772544E+03	 3.807800049E+03
 1.498291858E+03	 3.800000000E+03
 1.498811116E+03	 3.774600098E+03
 1.499330321E+03	 3.821600098E+03
 1.499849470E+03	 3.786199951E+03
 1.500368565E+03	 3.762399902E+03
 1.500887605E+03	 3.756600098E+03
 1.501406591E+03	 3.772600098E+03
 1.501925521E+03	 3.766600098E+03
 1.502444397E+03	 3.777399902E+03
 1.502963219E+03	 3.784000000E+03
 1.503481985E+03	 3.789199951E+03
 1.504000697E+03	 3.758600098E+03
 1.504519355E+03	 3.747399902E+03
 1.505037957E+03	 3.767800049E+03
 1.505556505E+03	 3.796199951E+03
 1.506074999E+03	 3.767199951E+03
 1.506593437E+03	 3.755000000E+03
 1.507111821E+03	 3.772399902E+03
 1.507630150E+03	 3.754800049E+03
 1.508148425E+03	 3.755000000E+03
 1.508666645E+03	 3.737399902E+03
 1.509184810E+03	 3.766199951E+03
 1.509702921E+03	 3.729399902E+03
 1.510220977E+03	 3.768800049E+03
 1.510738979E+03	 3.751600098E+03
 1.511256925E+03	 3.749800049E+03
 1.511774817E+03	 3.728399902E+03
 1.512292655E+03	 3.748000000E+03
 1.512810438E+03	 3.703800049E+03
 1.513328166E+03	 3.743399902E+03
 1.513845840E+03	 3.733399902E+03
 1.514363459E+03	 3.744800049E+03
 1.514881023E+03	 3.745000000E+03
 1.515398533E+03	 3.725600098E+03
 1.515915988E+03	 3.750600098E+03
 1.516433389E+03	 3.714399902E+03
 1.516950734E+03	 3.702399902E+03
 1.517468026E+03	 3.688399902E+03
 1.517985263E+03	 3.727399902E+03
 1.518502445E+03	 3.738199951E+03
 1.519019572E+03	 3.696600098E+03
 1.519536645E+03	 3.714199951E+03
 1.520053664E+03	 3.731199951E+03
 1.520570628E+03	 3.719600098E+03
 1.521087537E+03	 3.705399902E+03
 1.521604392E+03	 3.745800049E+03
 1.522121192E+03	 3.714399902E+03
 1.522637937E+03	 3.725600098E+03
 1.523154628E+03	 3.682199951E+03
 1.523671265E+03	 3.721199951E+03
 1.524187847E+03	 3.716600098E+03
 1.524704374E+03	 3.720399902E+03
 1.525220847E+03	 3.719600098E+03
 1.525737265E+03	 3.699399902E+03
 1.526253629E+03	 3.717800049E+03
 1.526769938E+03	 3.718600098E+03
 1.527286192E+03	 3.735800049E+03
 1.527802392E+03	 3.698399902E+03
 1.528318538E+03	 3.735800049E+03
 1.528834629E+03	 3.690800049E+03
 1.529350666E+03	 3.725199951E+03
 1.529866648E+03	 3.677000000E+03
 1.530382575E+03	 3.690199951E+03
 1.530898448E+03	 3.700800049E+03
 1.531414266E+03	 3.703399902E+03
 1.531930030E+03	 3.702000000E+03
 1.532445740E+03	 3.673399902E+03
 1.532961395E+03	 3.728399902E+03
 1.533476995E+03	 3.706800049E+03
 1.533992541E+03	 3.693800049E+03
 1.534508033E+03	 3.699399902E+03
 1.535023470E+03	 3.748399902E+03
 1.535538852E+03	 3.672000000E+03
 1.536054180E+03	 3.672399902E+03
 1.536569454E+03	 3.725399902E+03
 1.537084673E+03	 3.686600098E+03
 1.537599837E+03	 3.694600098E+03
 1.538114947E+03	 3.682000000E+03
 1.538630003E+03	 3.687000000E+03
 1.539145004E+03	 3.676800049E+03
 1.539659951E+03	 3.697600098E+03
 1.540174843E+03	 3.690399902E+03
 1.540689681E+03	 3.717199951E+03
 1.541204465E+03	 3.656600098E+03
 1.541719194E+03	 3.694399902E+03
 1.542233868E+03	 3.661600098E+03
 1.542748488E+03	 3.692399902E+03
 1.543263054E+03	 3.689800049E+03
 1.543777565E+03	 3.662000000E+03
 1.544292022E+03	 3.697800049E+03
 1.544806424E+03	 3.683000000E+03
 1.545320772E+03	 3.669600098E+03
 1.545835066E+03	 3.679000000E+03
 1.546349305E+03	 3.687800049E+03
 1.546863489E+03	 3.665199951E+03
 1.547377620E+03	 3.671399902E+03
 1.547891696E+03	 3.658600098E+03
 1.548405717E+03	 3.663800049E+03
 1.548919684E+03	 3.693800049E+03
 1.549433597E+03	 3.659399902E+03
 1.549947455E+03	 3.696600098E+03
 1.550461259E+03	 3.628000000E+03
 1.550975009E+03	 3.682199951E+03
 1.551488704E+03	 3.672800049E+03
 1.552002345E+03	 3.656600098E+03
 1.552515931E+03	 3.688000000E+03
 1.553029463E+03	 3.680600098E+03
 1.553542941E+03	 3.668000000E+03
 1.554056364E+03	 3.672800049E+03
 1.554569733E+03	 3.707800049E+03
 1.555083048E+03	 3.649600098E+03
 1.555596308E+03	 3.675399902E+03
 1.556109514E+03	 3.641199951E+03
 1.556622665E+03	 3.671199951E+03
 1.557135762E+03	 3.662600098E+03
 1.557648805E+03	 3.656600098E+03
 1.558161794E+03	 3.655399902E+03
 1.558674728E+03	 3.662600098E+03
 1.559187608E+03	 3.645800049E+03
 1.559700433E+03	 3.648199951E+03
 1.560213205E+03	 3.670199951E+03
 1.560725921E+03	 3.639399902E+03
 1.561238584E+03	 3.693600098E+03
 1.561751192E+03	 3.660399902E+03
 1.562263746E+03	 3.675800049E+03
 1.562776246E+03	 3.648199951E+03
 1.563288691E+03	 3.667600098E+03
 1.563801082E+03	 3.666199951E+03
 1.564313419E+03	 3.627600098E+03
 1.564825701E+03	 3.646000000E+03
 1.565337929E+03	 3.626399902E+03
 1.565850103E+03	 3.645600098E+03
 1.566362223E+03	 3.620199951E+03
 1.566874288E+03	 3.659399902E+03
 1.567386299E+03	 3.638000000E+03
 1.567898256E+03	 3.664399902E+03
 1.568410158E+03	 3.636000000E+03
 1.568922007E+03	 3.638600098E+03
 1.569433800E+03	 3.630399902E+03
 1.569945540E+03	 3.646000000E+03
 1.570457226E+03	 3.662000000E+03
 1.570968857E+03	 3.616199951E+03
 1.571480434E+03	 3.662199951E+03
 1.571991956E+03	 3.624600098E+03
 1.572503425E+03	 3.638399902E+03
 1.573014839E+03	 3.600800049E+03
 1.573526199E+03	 3.634800049E+03
 1.574037505E+03	 3.612000000E+03
 1.574548756E+03	 3.641399902E+03
 1.575059953E+03	 3.610000000E+03
 1.575571096E+03	 3.615800049E+03
 1.576082185E+03	 3.655000000E+03
 1.576593220E+03	 3.593399902E+03
 1.577104200E+03	 3.654399902E+03
 1.577615126E+03	 3.586399902E+03
 1.578125998E+03	 3.634600098E+03
 1.578636816E+03	 3.625600098E+03
 1.579147580E+03	 3.613800049E+03
 1.579658289E+03	 3.600000000E+03
 1.580168944E+03	 3.614399902E+03
 1.580679545E+03	 3.615600098E+03
 1.581190092E+03	 3.579199951E+03
 1.581700585E+03	 3.614000000E+03
 1.582211023E+03	 3.573199951E+03
 1.582721407E+03	 3.613600098E+03
 1.583231737E+03	 3.576199951E+03
 1.583742013E+03	 3.624600098E+03
 1.584252235E+03	 3.571199951E+03
 1.584762403E+03	 3.595199951E+03
 1.585272516E+03	 3.592000000E+03
 1.585782575E+03	 3.577399902E+03
 1.586292581E+03	 3.617000000E+03
 1.586802532E+03	 3.588000000E+03
 1.587312428E+03	 3.621000000E+03
 1.587822271E+03	 3.577000000E+03
 1.588332060E+03	 3.625000000E+03
 1.588841794E+03	 3.551000000E+03
 1.589351474E+03	 3.607600098E+03
 1.589861100E+03	 3.578399902E+03
 1.590370672E+03	 3.598000000E+03
 1.590880190E+03	 3.592399902E+03
 1.591389654E+03	 3.570800049E+03
 1.591899064E+03	 3.589800049E+03
 1.592408419E+03	 3.559399902E+03
