1042.555005	709.4000244
1043.121438	705.2000122
1043.687813	705.0
1044.254131	702.5999756
1044.820391	705.5999756
1045.386593	703.5999756
1045.952737	702.2000122
1046.518824	699.4000244
1047.084853	701.0
1047.650824	702.7999878
1048.216738	702.0
1048.782593	706.7999878
1049.348392	698.4000244
1049.914132	700.7999878
1050.479815	696.5999756
1051.04544	696.0
1051.611007	698.0
1052.176517	699.5999756
1052.741968	699.7999878
1053.307363	703.5999756
1053.872699	695.0
1054.437978	699.2000122
1055.003199	697.7999878
1055.568363	700.0
1056.133469	696.7999878
1056.698517	698.7999878
1057.263508	702.0
1057.82844	697.7999878
1058.393316	697.0
1058.958133	694.0
1059.522893	694.7999878
1060.087596	699.2000122
1060.652241	694.2000122
1061.216828	695.2000122
1061.781357	695.0
1062.345829	694.5999756
1062.910243	698.0
1063.4746	700.4000244
1064.038899	697.5999756
1064.60314	696.2000122
1065.167324	695.5999756
1065.731451	693.5999756
1066.295519	699.4000244
1066.85953	698.0
1067.423484	696.4000244
1067.98738	694.7999878
1068.551218	694.5999756
1069.114999	695.5999756
1069.678722	697.4000244
1070.242388	697.7999878
1070.805996	695.7999878
1071.369546	693.5999756
1071.933039	695.2000122
1072.496475	695.7999878
1073.059853	694.0
1073.623173	697.7999878
1074.186436	695.2000122
1074.749641	693.4000244
1075.312789	695.4000244
1075.875879	692.2000122
1076.438912	696.0
1077.001887	696.0
1077.564805	696.0
1078.127665	694.5999756
1078.690468	694.7999878
1079.253213	695.0
1079.815901	696.7999878
1080.378531	695.5999756
1080.941104	695.2000122
1081.50362	696.0
1082.066077	691.4000244
1082.628478	697.4000244
1083.190821	693.7999878
1083.753106	694.5999756
1084.315334	694.0
1084.877505	692.0
1085.439618	693.2000122
1086.001673	692.7999878
1086.563671	696.4000244
1087.125612	696.4000244
1087.687495	695.2000122
1088.249321	697.0
1088.81109	697.7999878
1089.372801	694.4000244
1089.934454	694.7999878
1090.49605	696.0
1091.057589	694.0
1091.619071	697.0
1092.180495	695.4000244
1092.741861	694.0
1093.30317	695.0
1093.864422	693.2000122
1094.425616	692.7999878
1094.986753	693.4000244
1095.547833	693.4000244
1096.108855	695.7999878
1096.66982	693.4000244
1097.230728	700.5999756
1097.791578	691.2000122
1098.35237	693.2000122
1098.913106	695.0
1099.473784	692.7999878
1100.034405	694.0
1100.594968	695.4000244
1101.155474	696.4000244
1101.715923	691.2000122
1102.276314	695.4000244
1102.836648	697.4000244
1103.396925	694.0
1103.957144	695.2000122
1104.517306	693.5999756
1105.077411	690.4000244
1105.637459	692.7999878
1106.197449	693.4000244
1106.757382	694.2000122
1107.317257	697.5999756
1107.877075	696.0
1108.436836	694.0
1108.99654	697.2000122
1109.556187	695.4000244
1110.115776	696.7999878
1110.675308	695.0
1111.234782	698.2000122
1111.7942	696.2000122
1112.35356	699.5999756
1112.912862	696.4000244
1113.472108	698.2000122
1114.031296	698.4000244
1114.590427	699.0
1115.149501	695.2000122
1115.708518	694.0
1116.267477	699.7999878
1116.826379	697.7999878
1117.385224	699.7999878
1117.944012	694.4000244
1118.502743	694.7999878
1119.061416	697.5999756
1119.620032	693.0
1120.178591	695.2000122
1120.737092	695.4000244
1121.295537	695.4000244
1121.853924	697.4000244
1122.412254	694.7999878
1122.970527	693.2000122
1123.528743	697.5999756
1124.086901	694.0
1124.645003	694.5999756
1125.203047	694.4000244
1125.761034	691.2000122
1126.318964	693.0
1126.876836	695.0
1127.434652	699.4000244
1127.99241	692.4000244
1128.550112	694.4000244
1129.107756	693.5999756
1129.665343	691.0
1130.222873	696.7999878
1130.780345	694.0
1131.337761	699.0
1131.895119	695.7999878
1132.452421	689.2000122
1133.009665	696.0
1133.566852	695.4000244
1134.123982	695.4000244
1134.681055	696.5999756
1135.238071	690.0
1135.79503	691.5999756
1136.351931	693.7999878
1136.908776	690.5999756
1137.465563	692.4000244
1138.022294	693.4000244
1138.578967	694.5999756
1139.135583	690.7999878
1139.692142	691.2000122
1140.248645	693.7999878
1140.80509	696.4000244
1141.361478	698.2000122
1141.917809	696.0
1142.474083	699.2000122
1143.030299	695.4000244
1143.586459	699.7999878
1144.142562	698.7999878
1144.698608	693.0
1145.254596	697.0
1145.810528	694.0
1146.366403	695.7999878
1146.922221	697.7999878
1147.477981	702.4000244
1148.033685	703.4000244
1148.589332	697.7999878
1149.144921	700.2000122
1149.700454	711.0
1150.255929	747.5999756
1150.811348	771.5999756
1151.36671	724.7999878
1151.922014	703.4000244
1152.477262	696.2000122
1153.032453	697.4000244
1153.587587	696.7999878
1154.142664	696.0
1154.697683	692.4000244
1155.252646	695.5999756
1155.807552	693.0
1156.362401	693.5999756
1156.917193	695.4000244
1157.471928	696.5999756
1158.026607	696.5999756
1158.581228	691.0
1159.135792	691.5999756
1159.690299	695.5999756
1160.24475	695.0
1160.799143	694.2000122
1161.35348	695.2000122
1161.90776	696.4000244
1162.461983	693.0
1163.016149	694.2000122
1163.570258	692.4000244
1164.12431	693.0
1164.678305	695.2000122
1165.232243	692.0
1165.786125	692.7999878
1166.339949	691.7999878
1166.893717	691.4000244
1167.447428	693.4000244
1168.001082	695.0
1168.554679	688.4000244
1169.108219	692.7999878
1169.661702	695.2000122
1170.215129	694.0
1170.768498	686.4000244
1171.321811	692.2000122
1171.875067	694.2000122
1172.428266	696.4000244
1172.981409	695.0
1173.534494	695.2000122
1174.087523	689.7999878
1174.640495	693.2000122
1175.19341	693.0
1175.746268	691.7999878
1176.299069	692.4000244
1176.851814	696.0
1177.404501	691.4000244
1177.957132	696.7999878
1178.509707	699.5999756
1179.062224	691.4000244
1179.614685	693.4000244
1180.167088	692.5999756
1180.719435	695.4000244
1181.271726	696.5999756
1181.823959	692.7999878
1182.376136	694.4000244
1182.928256	696.4000244
1183.480319	693.7999878
1184.032325	698.5999756
1184.584275	695.0
1185.136168	696.4000244
1185.688004	698.5999756
1186.239784	696.2000122
1186.791506	696.7999878
1187.343172	695.4000244
1187.894781	696.0
1188.446334	695.0
1188.99783	697.5999756
1189.549269	697.4000244
1190.100651	695.7999878
1190.651977	694.0
1191.203246	697.0
1191.754458	696.4000244
1192.305613	695.2000122
1192.856712	694.4000244
1193.95874	695.0
1194.509669	694.7999878
1195.060541	694.2000122
1195.611356	693.7999878
1196.162115	696.5999756
1196.712817	694.4000244
1197.263462	695.7999878
1197.814051	694.5999756
1198.364583	693.2000122
1198.915058	692.4000244
1199.465477	689.5999756
1200.015839	691.4000244
1200.566145	692.5999756
1201.116394	692.7999878
1201.666586	693.4000244
1202.216721	692.2000122
1202.7668	692.2000122
1203.316823	690.0
1203.866788	692.2000122
1204.416697	691.7999878
1204.96655	693.5999756
1205.516346	691.4000244
1206.066085	692.0
1206.615768	691.7999878
1207.165394	696.2000122
1207.714963	694.7999878
1208.264476	696.2000122
1208.813932	693.4000244
1209.363332	696.2000122
1209.912675	692.5999756
1210.461962	692.4000244
1211.011192	691.5999756
1211.560365	690.5999756
1212.109482	695.7999878
1212.658542	694.0
1213.207546	692.4000244
1213.756493	694.0
1214.305384	691.7999878
1214.854218	696.4000244
1215.402995	696.7999878
1215.951716	689.5999756
1216.500381	693.5999756
1217.048989	692.7999878
1217.59754	695.4000244
1218.146035	697.0
1218.694473	698.4000244
1219.242855	694.2000122
1219.79118	694.7999878
1220.339449	695.5999756
1220.887662	694.2000122
1221.435817	694.2000122
1221.983917	698.4000244
1222.531959	693.5999756
1223.079946	699.0
1223.627876	694.2000122
1224.175749	696.7999878
1224.723566	696.7999878
1225.271326	695.4000244
1225.81903	695.5999756
1226.366678	691.4000244
1226.914269	693.2000122
1227.461803	696.4000244
1228.009281	695.0
1228.556703	694.2000122
1229.104068	694.0
1229.651377	694.2000122
1230.198629	696.5999756
1230.745825	692.0
1231.292965	698.4000244
1231.840048	693.7999878
1232.387074	696.4000244
1232.934044	693.7999878
1233.480958	692.7999878
1234.027815	695.7999878
1234.574616	690.7999878
1235.121361	695.4000244
1235.668049	696.0
1236.214681	694.5999756
1236.761256	692.7999878
1237.307775	693.5999756
1237.854237	693.4000244
1238.400643	690.2000122
1238.946993	688.7999878
1239.493287	693.2000122
1240.039524	696.4000244
1240.585704	692.7999878
1241.131828	694.2000122
1241.677896	688.7999878
1242.223908	690.0
1242.769863	696.2000122
1243.315762	694.7999878
1243.861604	692.5999756
1244.40739	694.2000122
1244.95312	691.0
1245.498794	699.4000244
1246.044411	694.4000244
1246.589972	691.7999878
1247.135476	696.4000244
1247.680924	695.2000122
1248.226316	694.4000244
1248.771652	696.5999756
1249.316931	692.7999878
1249.862154	695.7999878
1250.40732	693.0
1250.95243	691.4000244
1251.497484	695.7999878
1252.042482	694.7999878
1252.587423	692.0
1253.132309	697.5999756
1253.677137	694.2000122
1254.22191	689.4000244
1254.766626	696.4000244
1255.311286	693.2000122
1255.85589	692.7999878
1256.400437	690.7999878
1256.944929	693.7999878
1257.489363	696.4000244
1258.033742	693.0
1258.578065	694.2000122
1259.122331	692.0
1259.666541	692.0
1260.210694	703.7999878
1260.754792	693.0
1261.298833	694.0
1261.842818	693.2000122
1262.386747	694.0
1262.930619	692.2000122
1263.474436	699.2000122
1264.018196	699.5999756
1264.5619	704.7999878
1265.105548	712.0
1265.649139	706.4000244
1266.192674	702.7999878
1266.736154	693.4000244
1267.279576	693.7999878
1267.822943	692.2000122
1268.366254	695.7999878
1268.909508	693.5999756
1269.452706	691.0
1269.995848	693.0
1270.538934	689.7999878
1271.081964	688.7999878
1271.624937	694.0
1272.167855	694.0
1272.710716	694.4000244
1273.253521	691.7999878
1273.79627	693.0
1274.338962	688.2000122
1274.881599	694.5999756
1275.42418	692.4000244
1275.966704	693.2000122
1276.509172	690.5999756
1277.051584	693.4000244
1277.59394	693.4000244
1278.13624	692.7999878
1278.678484	692.0
1279.220671	692.2000122
1279.762803	691.7999878
1280.304878	693.4000244
1280.846897	693.7999878
1281.388861	691.0
1281.930768	696.0
1282.472619	699.4000244
1283.014414	697.2000122
1283.556152	710.0
1284.097835	732.5999756
1284.639462	801.0
1285.181032	972.7999878
1285.722547	975.0
1286.264005	787.2000122
1286.805408	724.7999878
1287.346754	706.4000244
1287.888044	698.0
1288.429278	697.5999756
1288.970457	694.0
1289.511579	698.2000122
1290.052645	697.0
1290.593655	689.5999756
1291.134609	687.2000122
1291.675507	694.7999878
1292.216349	692.4000244
1292.757135	693.4000244
1293.297865	694.7999878
1293.838539	693.0
1294.379156	694.5999756
1294.919718	690.7999878
1295.460224	693.4000244
1296.000674	689.0
1296.541068	689.7999878
1297.081406	693.5999756
1297.621688	693.7999878
1298.161913	692.7999878
1298.702083	696.7999878
1299.242197	690.2000122
1299.782255	693.0
1300.322257	694.5999756
1300.862203	692.4000244
1301.402093	694.7999878
1301.941927	689.4000244
1302.481705	689.7999878
1303.021427	691.2000122
1303.561094	694.5999756
1304.100704	686.5999756
1304.640258	688.2000122
1305.179756	692.4000244
1305.719199	691.0
1306.258585	693.4000244
1306.797916	693.4000244
1307.33719	686.7999878
1307.876409	689.7999878
1308.415572	688.7999878
1308.954679	697.0
1309.49373	692.2000122
1310.032725	692.0
1310.571664	690.0
1311.110547	689.0
1311.649374	692.2000122
1312.188146	691.0
1312.726861	691.0
1313.265521	689.2000122
1313.804125	692.4000244
1314.342672	691.7999878
1314.881164	691.7999878
1315.419601	689.2000122
1315.957981	691.4000244
1316.496305	690.5999756
1317.034574	690.0
1317.572786	692.0
1318.110943	689.4000244
1318.649044	688.7999878
1319.187089	683.7999878
1319.725078	693.2000122
1320.263012	691.4000244
1320.800889	690.0
1321.338711	691.4000244
1321.876477	686.0
1322.414187	694.4000244
1322.951841	689.0
1323.489439	692.4000244
1324.026982	694.0
1324.564469	692.4000244
1325.101899	690.0
1325.639275	692.0
1326.176594	695.4000244
1326.713857	690.5999756
1327.251065	690.5999756
1327.788217	693.5999756
1328.325313	690.2000122
1328.862353	684.4000244
1329.399338	692.4000244
1329.936267	690.2000122
1330.47314	689.0
1331.009957	691.4000244
1331.546718	688.4000244
1332.083424	687.7999878
1332.620074	688.0
1333.156668	694.0
1333.693207	691.2000122
1334.229689	689.5999756
1334.766116	692.2000122
1335.302487	690.7999878
1335.838803	688.2000122
1336.375062	688.2000122
1336.911266	689.7999878
1337.447414	688.7999878
1337.983507	689.7999878
1338.519543	688.4000244
1339.055524	694.2000122
1339.59145	692.7999878
1340.127319	690.4000244
1340.663133	688.7999878
1341.198891	686.5999756
1341.734594	690.5999756
1342.27024	690.4000244
1342.805831	692.5999756
1343.341367	691.7999878
1343.876846	687.5999756
1344.41227	692.5999756
1344.947639	688.2000122
1345.482951	690.7999878
1346.018208	689.5999756
1346.553409	688.2000122
1347.088555	690.0
1347.623645	689.0
1348.158679	690.5999756
1348.693658	692.0
1349.22858	686.4000244
1349.763448	692.7999878
1350.298259	689.2000122
1350.833015	687.2000122
1351.367716	692.4000244
1351.90236	691.2000122
1352.436949	688.7999878
1352.971483	689.2000122
1353.50596	693.7999878
1354.040383	691.4000244
1354.574749	694.4000244
1355.10906	693.5999756
1355.643315	694.4000244
1356.177515	686.4000244
1356.711659	686.2000122
1357.245747	690.0
1357.77978	684.4000244
1358.313757	691.2000122
1358.847679	687.0
1359.381545	687.5999756
1359.915356	695.5999756
1360.44911	688.2000122
1360.98281	688.0
1361.516453	689.0
1362.050042	690.0
1362.583574	693.4000244
1363.117051	691.7999878
1363.650473	690.0
1364.183838	691.7999878
1364.717149	689.2000122
1365.250404	687.5999756
1365.783603	692.7999878
1366.316746	690.5999756
1366.849834	689.2000122
1367.382867	688.0
1367.915844	692.5999756
1368.448766	689.4000244
1368.981631	687.7999878
1369.514442	689.0
1370.047197	694.0
1370.579896	704.2000122
1371.11254	692.2000122
1371.645128	686.4000244
1372.177661	690.5999756
1372.710139	693.0
1373.24256	697.4000244
1373.774927	692.0
1374.307238	690.0
1374.839493	689.4000244
1375.371693	691.4000244
1375.903837	688.5999756
1376.435926	694.7999878
1376.967959	687.0
1377.499937	688.2000122
1378.03186	690.0
1378.563727	688.4000244
1379.095538	691.7999878
1379.627294	689.0
1380.158995	693.7999878
1380.69064	687.5999756
1381.222229	690.0
1381.753764	693.0
1382.285242	693.4000244
1382.816666	693.4000244
1383.348033	690.0
1383.879346	694.0
1384.410603	688.0
1384.941804	697.2000122
1385.472951	699.0
1386.004041	696.0
1386.535077	704.4000244
1387.066056	716.2000122
1387.596981	752.4000244
1388.12785	918.2000122
1388.658664	1235.599976
1389.189422	1052.599976
1389.720125	779.2000122
1390.250772	714.5999756
1390.781364	702.2000122
1391.311901	697.7999878
1391.842382	694.5999756
1392.372808	694.2000122
1392.903178	699.0
1393.433494	692.5999756
1393.963753	691.7999878
1394.493958	689.0
1395.024107	692.4000244
1395.5542	691.7999878
1396.084239	690.2000122
1396.614222	693.2000122
1397.144149	691.0
1397.674021	688.7999878
1398.203838	691.2000122
1398.7336	687.7999878
1399.263306	691.2000122
1399.792957	690.4000244
1400.322552	690.2000122
1400.852093	689.5999756
1401.381577	692.5999756
1401.911007	687.4000244
1402.440381	687.0
1402.9697	693.0
1403.498964	688.5999756
1404.028172	686.4000244
1404.557325	690.4000244
1405.086423	690.4000244
1405.615465	690.0
1406.144452	687.4000244
1406.673384	687.0
1407.20226	692.2000122
1407.731082	694.2000122
1408.259847	691.7999878
1408.788558	702.5999756
1409.317213	705.0
1409.845814	725.0
1410.374358	729.4000244
1410.902848	708.5999756
1411.431282	697.2000122
1411.959661	691.4000244
1412.487985	687.0
1413.016253	691.7999878
1413.544467	691.4000244
1414.072625	689.5999756
1414.600727	690.4000244
1415.128775	689.7999878
1415.656767	698.5999756
1416.184704	689.4000244
1416.712586	690.4000244
1417.240413	688.4000244
1417.768184	688.7999878
1418.2959	686.5999756
1418.823561	689.7999878
1419.351167	689.5999756
1419.878717	687.7999878
1420.406213	687.0
1420.933653	691.2000122
1421.461038	686.7999878
1421.988367	686.2000122
1422.515642	692.2000122
1423.042861	688.5999756
1423.570025	689.4000244
1424.097134	691.7999878
1424.624188	690.2000122
1425.151187	692.0
1425.67813	690.7999878
1426.205018	692.7999878
1426.731851	690.4000244
1427.258629	691.2000122
1427.785352	689.7999878
1428.31202	689.2000122
1428.838632	692.7999878
1429.365189	690.7999878
1429.891692	689.5999756
1430.418139	687.2000122
1430.94453	689.4000244
1431.470867	690.2000122
1431.997149	688.7999878
1432.523375	688.2000122
1433.049546	687.4000244
1433.575663	690.0
1434.101724	687.0
1434.62773	687.0
1435.15368	690.7999878
1435.679576	687.5999756
1436.205417	688.4000244
1436.731202	691.4000244
1437.256933	684.4000244
1437.782608	688.7999878
1438.308228	690.4000244
1438.833793	692.4000244
1439.359303	686.7999878
1439.884758	684.0
1440.410158	688.4000244
1440.935503	690.5999756
1441.460793	690.0
1441.986027	687.2000122
1442.511207	688.5999756
1443.036331	691.7999878
1443.561401	691.0
1444.086415	692.7999878
1444.611374	687.5999756
1445.136279	686.7999878
1445.661128	691.7999878
1446.185922	692.0
1446.710661	689.7999878
1447.235345	691.2000122
1447.759974	686.5999756
1448.284548	689.2000122
1448.809067	687.2000122
1449.333531	690.4000244
1449.85794	692.4000244
1450.382294	687.4000244
1450.906593	689.7999878
1451.430837	685.7999878
1451.955026	690.5999756
1452.47916	690.0
1453.003239	691.2000122
1453.527263	690.7999878
1454.051231	689.4000244
1454.575145	688.2000122
1455.099004	689.2000122
1455.622808	686.0
1456.146557	685.4000244
1456.670251	688.7999878
1457.19389	689.7999878
1457.717474	688.5999756
1458.241003	690.4000244
1458.764477	688.0
1459.287896	689.7999878
1459.81126	688.7999878
1460.334569	693.5999756
1460.857824	687.7999878
1461.381023	691.5999756
1461.904167	690.2000122
1462.427257	690.4000244
1462.950291	692.5999756
1463.473271	694.5999756
1463.996195	693.0
1464.519065	689.5999756
1465.041879	691.5999756
1465.564639	692.4000244
1466.087344	688.5999756
1466.609994	691.2000122
1467.132589	691.2000122
1467.655129	690.0
1468.177614	685.5999756
1468.700045	686.7999878
1469.22242	688.5999756
1469.744741	686.2000122
1470.267006	691.5999756
1470.789217	690.4000244
1471.311373	690.7999878
1471.833474	689.7999878
1472.35552	688.2000122
1472.877511	687.5999756
1473.399447	685.5999756
1473.921329	688.5999756
1474.443155	685.7999878
1474.964927	687.7999878
1475.486644	685.7999878
1476.008306	686.7999878
1476.529913	687.2000122
1477.051465	686.4000244
1477.572962	686.4000244
1478.094405	689.2000122
1478.615793	688.0
1479.137126	688.4000244
1479.658404	684.5999756
1480.179627	685.7999878
1480.700795	685.0
1481.221909	685.0
1481.742967	688.4000244
1482.263971	688.0
1482.78492	687.5999756
1483.305815	687.0
1483.826654	683.2000122
1484.347439	688.7999878
1484.868169	688.7999878
1485.388844	690.4000244
1485.909464	688.2000122
1486.43003	685.7999878
1486.95054	686.7999878
1487.470996	684.5999756
1487.991397	685.2000122
1488.511744	685.0
1489.032035	687.2000122
1489.552272	686.2000122
1490.072454	684.4000244
1490.592581	687.2000122
1491.112654	686.7999878
1491.632671	687.7999878
1492.152634	686.2000122
1492.672542	684.7999878
1493.192396	687.2000122
1493.712195	685.5999756
1494.231939	687.7999878
1494.751628	684.5999756
1495.271262	686.5999756
1495.790842	687.2000122
1496.310367	686.4000244
1496.829837	687.4000244
1497.349253	686.7999878
1497.868614	685.5999756
1498.38792	682.2000122
1498.907171	685.7999878
1499.426368	688.4000244
1499.94551	693.0
1500.464597	685.4000244
1500.98363	685.5999756
1501.502607	686.4000244
1502.021531	686.2000122
1502.540399	688.0
1503.059213	683.4000244
1503.577972	684.4000244
1504.096676	686.2000122
1504.615326	684.0
1505.133921	685.7999878
1505.652462	687.4000244
1506.170947	686.7999878
1506.689378	685.0
1507.207755	685.7999878
1507.726077	684.2000122
1508.244344	687.5999756
1508.762556	687.5999756
1509.280714	684.2000122
1509.798817	681.2000122
1510.316865	689.7999878
1510.834859	692.4000244
1511.352799	688.2000122
1511.870683	688.0
1512.388513	684.7999878
1512.906288	687.5999756
1513.424009	687.7999878
1513.941675	685.2000122
1514.459287	690.4000244
1514.976843	687.4000244
1515.494346	687.0
1516.011793	690.5999756
1516.529186	682.5999756
1517.046525	683.5999756
1517.563809	684.5999756
1518.081038	687.0
1518.598212	684.2000122
1519.115332	683.0
1519.632398	682.2000122
1520.149409	686.4000244
1520.666365	682.4000244
1521.183267	685.0
1521.700114	686.4000244
1522.216907	685.7999878
1522.733645	682.4000244
1523.250328	689.5999756
1523.766957	686.2000122
1524.283531	682.5999756
1524.800051	685.2000122
1525.316516	687.7999878
1525.832927	689.2000122
1526.349283	689.4000244
1526.865585	687.0
1527.381832	684.5999756
1527.898025	687.5999756
1528.414163	684.2000122
1528.930246	683.7999878
1529.446275	682.5999756
1529.96225	687.5999756
1530.47817	685.2000122
1530.994035	686.0
1531.509846	683.7999878
1532.025602	684.7999878
1532.541304	682.0
1533.056952	683.7999878
1533.572545	691.2000122
1534.088083	686.4000244
1534.603567	688.7999878
1535.118997	687.2000122
1535.634372	686.0
1536.149692	686.4000244
1536.664958	683.5999756
1537.18017	682.2000122
1537.695327	683.0
1538.210429	684.7999878
1538.725477	684.0
1539.240471	684.0
1539.75541	685.2000122
1540.270295	686.5999756
1540.785126	684.5999756
1541.299901	691.7999878
1541.814623	686.2000122
1542.32929	686.4000244
1542.843903	687.0
1543.358461	685.4000244
1543.872964	683.7999878
1544.387414	685.0
1544.901809	684.2000122
1545.416149	685.5999756
1545.930435	686.4000244
1546.444667	687.4000244
1546.958844	683.4000244
1547.472967	687.7999878
1547.987035	688.5999756
1548.501049	683.4000244
1549.015009	683.2000122
1549.528914	685.2000122
1550.042765	685.5999756
1550.556561	686.4000244
1551.070303	685.4000244
1551.583991	686.4000244
1552.097624	685.5999756
1552.611203	685.5999756
1553.124728	685.5999756
1553.638198	688.5999756
1554.151614	684.7999878
1554.664975	687.7999878
1555.178282	687.0
1555.691535	686.0
1556.204733	686.7999878
1556.717877	686.7999878
1557.230967	685.4000244
1557.744003	684.0
1558.256984	685.0
1558.76991	683.5999756
1559.282783	685.4000244
1559.795601	684.2000122
1560.308364	685.4000244
1560.821074	683.2000122
1561.333729	685.5999756
1561.84633	686.4000244
1562.358876	687.2000122
1562.871368	684.4000244
1563.383806	685.5999756
1563.89619	685.7999878
1564.408519	684.0
1564.920794	687.4000244
1565.433015	687.7999878
1565.945181	688.7999878
1566.457293	682.4000244
1566.969351	685.5999756
1567.481355	686.7999878
1567.993304	683.0
1568.505199	685.5999756
1569.01704	684.4000244
1569.528826	689.5999756
1570.040558	685.0
1570.552236	685.5999756
1571.06386	687.2000122
1571.575429	686.2000122
1572.086945	685.2000122
1572.598406	684.7999878
1573.109812	683.2000122
1573.621165	687.5999756
1574.132463	686.2000122
1574.643707	683.2000122
1575.154897	682.7999878
1575.666033	682.7999878
1576.177114	688.5999756
1576.688141	688.7999878
1577.199114	684.0
1577.710033	683.7999878
1578.220897	689.0
1578.731708	686.0
1579.242464	687.5999756
1579.753166	686.5999756
1580.263813	688.2000122
1580.774407	683.2000122
1581.284946	684.2000122
1581.795432	685.0
1582.305863	686.7999878
1582.816239	685.2000122
1583.326562	683.2000122
1583.836831	685.0
1584.347045	687.4000244
1584.857205	683.4000244
1585.367311	687.0
1585.877363	682.7999878
1586.387361	682.2000122
1586.897304	686.7999878
1587.407194	684.4000244
1587.917029	684.2000122
1588.42681	685.5999756
1588.936537	685.4000244
1589.44621	688.0
1589.955829	683.0
1590.465393	682.0
1590.974904	686.0
1591.48436	684.4000244
1591.993762	687.0
1592.50311	684.7999878
