1042.555005	703.5999756
1043.121438	701.7999878
1043.687813	700.2000122
1044.254131	705.5999756
1044.820391	700.0
1045.386593	698.5999756
1045.952737	702.4000244
1046.518824	698.0
1047.084853	696.2000122
1047.650824	699.2000122
1048.216738	695.2000122
1048.782593	699.2000122
1049.348392	701.7999878
1049.914132	698.7999878
1050.479815	703.4000244
1051.04544	697.5999756
1051.611007	694.5999756
1052.176517	697.2000122
1052.741968	696.5999756
1053.307363	698.2000122
1053.872699	698.7999878
1054.437978	694.0
1055.003199	695.4000244
1055.568363	691.5999756
1056.133469	700.2000122
1056.698517	697.0
1057.263508	694.0
1057.82844	693.7999878
1058.393316	693.2000122
1058.958133	693.7999878
1059.522893	692.4000244
1060.087596	701.4000244
1060.652241	693.5999756
1061.216828	693.4000244
1061.781357	694.7999878
1062.345829	691.0
1062.910243	696.2000122
1063.4746	697.4000244
1064.038899	695.7999878
1064.60314	696.5999756
1065.167324	693.4000244
1065.731451	694.4000244
1066.295519	691.4000244
1066.85953	696.2000122
1067.423484	691.5999756
1067.98738	697.5999756
1068.551218	692.4000244
1069.114999	693.4000244
1069.678722	698.2000122
1070.242388	699.2000122
1070.805996	694.0
1071.369546	698.5999756
1071.933039	697.0
1072.496475	692.7999878
1073.059853	695.7999878
1073.623173	693.4000244
1074.186436	697.7999878
1074.749641	697.5999756
1075.312789	691.0
1075.875879	690.2000122
1076.438912	693.7999878
1077.001887	692.2000122
1077.564805	692.2000122
1078.127665	695.0
1078.690468	695.5999756
1079.253213	695.2000122
1079.815901	696.5999756
1080.378531	694.5999756
1080.941104	695.7999878
1081.50362	697.2000122
1082.066077	696.7999878
1082.628478	694.0
1083.190821	694.5999756
1083.753106	696.4000244
1084.315334	693.4000244
1084.877505	698.2000122
1085.439618	692.2000122
1086.001673	691.2000122
1086.563671	692.2000122
1087.125612	694.4000244
1087.687495	695.2000122
1088.249321	701.5999756
1088.81109	694.0
1089.372801	696.2000122
1089.934454	693.7999878
1090.49605	693.2000122
1091.057589	694.0
1091.619071	692.7999878
1092.180495	692.5999756
1092.741861	693.5999756
1093.30317	694.2000122
1093.864422	696.0
1094.425616	695.5999756
1094.986753	693.4000244
1095.547833	693.0
1096.108855	690.2000122
1096.66982	691.7999878
1097.230728	696.0
1097.791578	695.2000122
1098.35237	693.4000244
1098.913106	696.5999756
1099.473784	693.5999756
1100.034405	693.0
1100.594968	691.5999756
1101.155474	698.5999756
1101.715923	697.2000122
1102.276314	693.7999878
1102.836648	696.5999756
1103.396925	698.4000244
1103.957144	694.4000244
1104.517306	694.0
1105.077411	693.7999878
1105.637459	697.7999878
1106.197449	695.7999878
1106.757382	696.0
1107.317257	699.0
1107.877075	698.2000122
1108.436836	702.5999756
1108.99654	702.4000244
1109.556187	707.4000244
1110.115776	703.2000122
1110.675308	706.0
1111.234782	707.2000122
1111.7942	701.7999878
1112.35356	705.7999878
1112.912862	706.0
1113.472108	702.7999878
1114.031296	704.0
1114.590427	701.4000244
1115.149501	704.0
1115.708518	704.4000244
1116.267477	705.2000122
1116.826379	704.0
1117.385224	697.2000122
1117.944012	700.2000122
1118.502743	693.5999756
1119.061416	699.4000244
1119.620032	703.4000244
1120.178591	697.2000122
1120.737092	695.2000122
1121.295537	693.5999756
1121.853924	697.5999756
1122.412254	701.4000244
1122.970527	692.0
1123.528743	693.5999756
1124.086901	692.5999756
1124.645003	692.2000122
1125.203047	697.4000244
1125.761034	694.0
1126.318964	695.7999878
1126.876836	695.2000122
1127.434652	692.2000122
1127.99241	690.5999756
1128.550112	693.5999756
1129.107756	691.4000244
1129.665343	693.4000244
1130.222873	693.4000244
1130.780345	696.4000244
1131.337761	692.0
1131.895119	696.0
1132.452421	691.7999878
1133.009665	693.0
1133.566852	691.2000122
1134.123982	691.7999878
1134.681055	690.2000122
1135.238071	693.4000244
1135.79503	690.7999878
1136.351931	697.5999756
1136.908776	690.7999878
1137.465563	691.0
1138.022294	692.2000122
1138.578967	691.5999756
1139.135583	692.7999878
1139.692142	692.0
1140.248645	692.4000244
1140.80509	695.2000122
1141.361478	693.7999878
1141.917809	693.4000244
1142.474083	692.5999756
1143.030299	694.5999756
1143.586459	697.4000244
1144.142562	692.4000244
1144.698608	692.4000244
1145.254596	693.7999878
1145.810528	694.2000122
1146.366403	692.5999756
1146.922221	695.5999756
1147.477981	704.0
1148.033685	699.7999878
1148.589332	697.5999756
1149.144921	695.7999878
1149.700454	706.7999878
1150.255929	736.7999878
1150.811348	768.0
1151.36671	731.5999756
1151.922014	701.5999756
1152.477262	693.0
1153.032453	696.4000244
1153.587587	697.5999756
1154.142664	695.0
1154.697683	694.4000244
1155.252646	692.7999878
1155.807552	693.2000122
1156.362401	695.2000122
1156.917193	690.4000244
1157.471928	692.5999756
1158.026607	691.4000244
1158.581228	694.5999756
1159.135792	690.5999756
1159.690299	695.0
1160.24475	693.5999756
1160.799143	689.0
1161.35348	689.7999878
1161.90776	694.2000122
1162.461983	691.5999756
1163.016149	691.0
1163.570258	694.4000244
1164.12431	690.2000122
1164.678305	690.2000122
1165.232243	690.2000122
1165.786125	688.7999878
1166.339949	692.2000122
1166.893717	693.2000122
1167.447428	693.5999756
1168.001082	692.2000122
1168.554679	694.7999878
1169.108219	693.2000122
1169.661702	692.5999756
1170.215129	690.7999878
1170.768498	695.0
1171.321811	691.7999878
1171.875067	692.0
1172.428266	690.4000244
1172.981409	688.4000244
1173.534494	695.7999878
1174.087523	691.7999878
1174.640495	690.0
1175.19341	690.0
1175.746268	688.4000244
1176.299069	692.2000122
1176.851814	692.7999878
1177.404501	690.5999756
1177.957132	693.5999756
1178.509707	695.4000244
1179.062224	691.5999756
1179.614685	695.0
1180.167088	696.0
1180.719435	694.5999756
1181.271726	694.0
1181.823959	695.2000122
1182.376136	695.4000244
1182.928256	697.7999878
1183.480319	695.7999878
1184.032325	699.7999878
1184.584275	700.0
1185.136168	702.5999756
1185.688004	699.4000244
1186.239784	698.5999756
1186.791506	699.7999878
1187.343172	699.7999878
1187.894781	698.0
1188.446334	696.4000244
1188.99783	696.4000244
1189.549269	695.4000244
1190.100651	696.4000244
1190.651977	696.2000122
1191.203246	696.4000244
1191.754458	696.7999878
1192.305613	691.0
1192.856712	696.2000122
1193.407754	707.0
1193.95874	694.5999756
1194.509669	692.0
1195.060541	693.5999756
1195.611356	691.2000122
1196.162115	690.2000122
1196.712817	691.0
1197.263462	692.5999756
1197.814051	691.7999878
1198.364583	692.2000122
1198.915058	691.7999878
1199.465477	690.7999878
1200.015839	693.0
1200.566145	690.7999878
1201.116394	690.5999756
1201.666586	690.7999878
1202.216721	690.7999878
1202.7668	693.2000122
1203.316823	688.7999878
1203.866788	690.0
1204.416697	690.5999756
1204.96655	692.0
1205.516346	689.0
1206.066085	691.0
1206.615768	690.2000122
1207.165394	691.2000122
1207.714963	690.5999756
1208.264476	693.2000122
1208.813932	691.7999878
1209.363332	693.4000244
1209.912675	690.0
1210.461962	693.4000244
1211.011192	690.4000244
1211.560365	693.2000122
1212.109482	692.2000122
1212.658542	692.7999878
1213.207546	693.2000122
1213.756493	693.4000244
1214.305384	692.7999878
1214.854218	693.4000244
1215.402995	692.7999878
1215.951716	696.7999878
1216.500381	693.4000244
1217.048989	695.7999878
1217.59754	694.0
1218.146035	694.2000122
1218.694473	690.7999878
1219.242855	694.5999756
1219.79118	696.7999878
1220.339449	695.5999756
1220.887662	696.4000244
1221.435817	695.0
1221.983917	693.4000244
1222.531959	697.7999878
1223.079946	696.0
1223.627876	693.7999878
1224.175749	695.7999878
1224.723566	697.5999756
1225.271326	695.0
1225.81903	699.4000244
1226.366678	694.0
1226.914269	697.5999756
1227.461803	693.7999878
1228.009281	694.7999878
1228.556703	696.4000244
1229.104068	696.4000244
1229.651377	694.7999878
1230.198629	697.0
1230.745825	698.4000244
1231.292965	700.0
1231.840048	696.2000122
1232.387074	695.2000122
1232.934044	697.7999878
1233.480958	700.2000122
1234.027815	697.7999878
1234.574616	697.4000244
1235.121361	695.0
1235.668049	695.2000122
1236.214681	691.5999756
1236.761256	700.5999756
1237.307775	695.4000244
1237.854237	695.7999878
1238.400643	697.2000122
1238.946993	696.5999756
1239.493287	697.7999878
1240.039524	694.7999878
1240.585704	695.4000244
1241.131828	695.0
1241.677896	697.5999756
1242.223908	690.2000122
1242.769863	697.2000122
1243.315762	693.5999756
1243.861604	697.0
1244.40739	693.0
1244.95312	694.5999756
1245.498794	693.2000122
1246.044411	697.5999756
1246.589972	695.4000244
1247.135476	693.4000244
1247.680924	695.5999756
1248.226316	698.0
1248.771652	693.7999878
1249.316931	695.0
1249.862154	698.4000244
1250.40732	697.2000122
1250.95243	695.4000244
1251.497484	695.4000244
1252.042482	696.0
1252.587423	694.5999756
1253.132309	695.4000244
1253.677137	697.4000244
1254.22191	695.4000244
1254.766626	698.5999756
1255.311286	692.7999878
1255.85589	697.2000122
1256.400437	696.0
1256.944929	693.7999878
1257.489363	694.7999878
1258.033742	696.7999878
1258.578065	694.7999878
1259.122331	692.0
1259.666541	694.2000122
1260.210694	704.4000244
1260.754792	695.4000244
1261.298833	690.0
1261.842818	696.0
1262.386747	695.4000244
1262.930619	697.7999878
1263.474436	699.0
1264.018196	702.7999878
1264.5619	708.0
1265.105548	719.5999756
1265.649139	709.4000244
1266.192674	705.4000244
1266.736154	696.4000244
1267.279576	693.0
1267.822943	692.5999756
1268.366254	695.0
1268.909508	693.5999756
1269.452706	695.0
1269.995848	690.7999878
1270.538934	692.2000122
1271.081964	689.7999878
1271.624937	693.5999756
1272.167855	691.0
1272.710716	693.7999878
1273.253521	691.5999756
1273.79627	690.2000122
1274.338962	690.2000122
1274.881599	693.7999878
1275.42418	691.0
1275.966704	695.5999756
1276.509172	690.2000122
1277.051584	696.4000244
1277.59394	696.5999756
1278.13624	694.2000122
1278.678484	694.4000244
1279.220671	695.7999878
1279.762803	692.5999756
1280.304878	690.4000244
1280.846897	692.5999756
1281.388861	697.5999756
1281.930768	698.5999756
1282.472619	702.4000244
1283.014414	709.2000122
1283.556152	715.7999878
1284.097835	740.7999878
1284.639462	822.5999756
1285.181032	1018.200012
1285.722547	1025.400024
1286.264005	814.0
1286.805408	727.2000122
1287.346754	713.5999756
1287.888044	704.2000122
1288.429278	699.7999878
1288.970457	698.4000244
1289.511579	698.0
1290.052645	697.2000122
1290.593655	698.5999756
1291.134609	696.4000244
1291.675507	695.0
1292.216349	696.4000244
1292.757135	694.4000244
1293.297865	694.2000122
1293.838539	696.4000244
1294.379156	696.2000122
1294.919718	697.7999878
1295.460224	693.2000122
1296.000674	695.2000122
1296.541068	693.2000122
1297.081406	699.2000122
1297.621688	694.4000244
1298.161913	693.2000122
1298.702083	698.0
1299.242197	700.0
1299.782255	695.0
1300.322257	695.5999756
1300.862203	695.4000244
1301.402093	695.4000244
1301.941927	697.5999756
1302.481705	695.7999878
1303.021427	695.0
1303.561094	692.4000244
1304.100704	694.0
1304.640258	692.7999878
1305.179756	695.2000122
1305.719199	691.7999878
1306.258585	695.7999878
1306.797916	693.5999756
1307.33719	696.2000122
1307.876409	692.7999878
1308.415572	693.7999878
1308.954679	691.4000244
1309.49373	692.7999878
1310.032725	692.7999878
1310.571664	692.4000244
1311.110547	692.0
1311.649374	694.5999756
1312.188146	692.4000244
1312.726861	695.7999878
1313.265521	691.4000244
1313.804125	697.2000122
1314.342672	689.4000244
1314.881164	696.0
1315.419601	691.4000244
1315.957981	694.7999878
1316.496305	693.4000244
1317.034574	689.2000122
1317.572786	692.0
1318.110943	692.5999756
1318.649044	691.5999756
1319.187089	693.5999756
1319.725078	688.7999878
1320.263012	696.2000122
1320.800889	690.2000122
1321.338711	693.4000244
1321.876477	691.0
1322.414187	690.2000122
1322.951841	690.2000122
1323.489439	690.0
1324.026982	695.7999878
1324.564469	689.7999878
1325.101899	693.5999756
1325.639275	692.7999878
1326.176594	689.5999756
1326.713857	692.4000244
1327.251065	689.0
1327.788217	690.0
1328.325313	686.2000122
1328.862353	691.5999756
1329.399338	688.0
1329.936267	692.2000122
1330.47314	690.7999878
1331.009957	694.0
1331.546718	693.0
1332.083424	690.0
1332.620074	688.7999878
1333.156668	692.4000244
1333.693207	691.4000244
1334.229689	688.5999756
1334.766116	689.4000244
1335.302487	692.2000122
1335.838803	688.5999756
1336.375062	688.4000244
1336.911266	688.7999878
1337.447414	690.4000244
1337.983507	693.4000244
1338.519543	690.4000244
1339.055524	691.2000122
1339.59145	690.4000244
1340.127319	689.4000244
1340.663133	689.7999878
1341.198891	690.5999756
1341.734594	690.2000122
1342.27024	686.4000244
1342.805831	690.4000244
1343.341367	692.4000244
1343.876846	689.4000244
1344.41227	690.4000244
1344.947639	690.0
1345.482951	690.0
1346.018208	692.4000244
1346.553409	691.2000122
1347.088555	687.5999756
1347.623645	689.7999878
1348.158679	691.2000122
1348.693658	687.4000244
1349.22858	685.0
1349.763448	687.2000122
1350.298259	692.4000244
1350.833015	687.0
1351.367716	696.4000244
1353.50596	691.2000122
1354.040383	692.2000122
1354.574749	688.5999756
1355.10906	690.7999878
1355.643315	692.2000122
1356.177515	692.2000122
1356.711659	690.5999756
1357.245747	690.0
1357.77978	691.4000244
1358.313757	689.4000244
1358.847679	686.5999756
1359.381545	691.7999878
1359.915356	690.0
1360.44911	690.7999878
1360.98281	688.5999756
1361.516453	693.5999756
1362.050042	690.5999756
1362.583574	690.5999756
1363.117051	689.7999878
1363.650473	693.4000244
1364.183838	691.5999756
1364.717149	691.7999878
1365.250404	690.4000244
1365.783603	690.0
1366.316746	689.4000244
1366.849834	691.2000122
1367.382867	689.4000244
1367.915844	692.7999878
1368.448766	690.4000244
1368.981631	690.2000122
1369.514442	690.2000122
1370.047197	699.7999878
1370.579896	697.5999756
1371.11254	692.7999878
1371.645128	686.0
1372.177661	690.4000244
1372.710139	691.0
1373.24256	686.0
1373.774927	692.5999756
1374.307238	693.0
1374.839493	695.0
1375.371693	693.4000244
1375.903837	689.7999878
1376.435926	690.4000244
1376.967959	690.4000244
1377.499937	692.4000244
1378.03186	689.0
1378.563727	689.5999756
1379.095538	692.5999756
1379.627294	689.7999878
1380.158995	690.4000244
1380.69064	693.0
1381.222229	692.4000244
1381.753764	691.7999878
1382.285242	691.0
1382.816666	692.2000122
1383.348033	694.4000244
1383.879346	692.2000122
1384.410603	692.4000244
1384.941804	696.7999878
1385.472951	695.7999878
1386.004041	704.2000122
1386.535077	710.2000122
1387.066056	720.7999878
1387.596981	753.7999878
1388.12785	938.4000244
1388.658664	1345.599976
1389.189422	1161.599976
1389.720125	817.5999756
1390.250772	727.7999878
1390.781364	706.2000122
1391.311901	700.2000122
1391.842382	695.4000244
1392.372808	695.2000122
1392.903178	694.4000244
1393.433494	694.2000122
1393.963753	693.4000244
1394.493958	695.2000122
1395.024107	689.4000244
1395.5542	691.5999756
1396.084239	693.2000122
1396.614222	689.0
1397.144149	694.0
1397.674021	687.7999878
1398.203838	691.5999756
1398.7336	692.4000244
1399.263306	690.4000244
1399.792957	691.0
1400.322552	693.4000244
1400.852093	689.5999756
1401.381577	692.5999756
1401.911007	690.4000244
1402.440381	692.5999756
1402.9697	691.2000122
1403.498964	689.0
1404.028172	692.4000244
1404.557325	694.0
1405.086423	691.4000244
1405.615465	687.5999756
1406.144452	694.2000122
1406.673384	690.7999878
1407.20226	693.4000244
1407.731082	694.5999756
1408.259847	695.7999878
1408.788558	698.5999756
1409.317213	709.2000122
1409.845814	731.5999756
1410.374358	734.5999756
1410.902848	716.4000244
1411.431282	704.0
1411.959661	694.2000122
1412.487985	691.4000244
1413.016253	688.4000244
1413.544467	688.2000122
1414.072625	687.5999756
1414.600727	691.2000122
1415.128775	693.5999756
1415.656767	700.7999878
1416.184704	690.0
1416.712586	692.0
1417.240413	688.0
1417.768184	689.7999878
1418.2959	691.2000122
1418.823561	687.0
1419.351167	687.2000122
1419.878717	690.4000244
1420.406213	696.0
1420.933653	689.5999756
1421.461038	688.2000122
1421.988367	686.7999878
1422.515642	688.0
1423.042861	686.0
1423.570025	692.0
1424.097134	687.2000122
1424.624188	688.4000244
1425.151187	690.5999756
1425.67813	689.0
1426.205018	690.0
1426.731851	688.4000244
1427.258629	690.5999756
1427.785352	688.7999878
1428.31202	692.0
1428.838632	685.5999756
1429.365189	685.4000244
1429.891692	690.7999878
1430.418139	692.4000244
1430.94453	691.0
1431.470867	687.4000244
1431.997149	690.5999756
1432.523375	691.2000122
1433.049546	691.5999756
1433.575663	688.4000244
1434.101724	688.0
1434.62773	695.5999756
1435.15368	687.0
1435.679576	690.4000244
1436.205417	693.7999878
1436.731202	687.7999878
1437.256933	687.2000122
1437.782608	689.0
1438.308228	688.5999756
1438.833793	690.5999756
1439.359303	688.7999878
1439.884758	687.2000122
1440.410158	687.7999878
1440.935503	690.0
1441.460793	693.0
1441.986027	687.7999878
1442.511207	689.0
1443.036331	688.4000244
1443.561401	692.4000244
1444.086415	690.0
1444.611374	688.5999756
1445.136279	691.5999756
1445.661128	690.7999878
1446.185922	692.7999878
1446.710661	690.7999878
1447.235345	687.7999878
1447.759974	689.4000244
1448.284548	689.0
1448.809067	687.7999878
1449.333531	692.0
1449.85794	693.4000244
1450.382294	692.4000244
1450.906593	690.0
1451.430837	686.7999878
1451.955026	690.4000244
1452.47916	690.7999878
1453.003239	687.2000122
1453.527263	691.5999756
1454.051231	690.0
1454.575145	690.7999878
1455.099004	689.4000244
1455.622808	690.7999878
1456.146557	692.0
1456.670251	688.7999878
1457.19389	690.7999878
1457.717474	693.0
1458.241003	688.7999878
1458.764477	691.5999756
1459.287896	690.2000122
1459.81126	693.0
1460.334569	687.7999878
1460.857824	691.5999756
1461.381023	684.2000122
1461.904167	689.7999878
1462.427257	689.0
1462.950291	693.7999878
1463.473271	693.0
1463.996195	691.7999878
1464.519065	690.5999756
1465.041879	691.2000122
1465.564639	687.5999756
1466.087344	690.5999756
1466.609994	686.2000122
1467.132589	687.0
1467.655129	690.5999756
1468.177614	688.0
1468.700045	686.5999756
1469.22242	689.7999878
1469.744741	687.5999756
1470.267006	692.4000244
1470.789217	687.4000244
1471.311373	688.5999756
1471.833474	688.2000122
1472.35552	687.2000122
1472.877511	688.2000122
1473.399447	690.0
1473.921329	688.5999756
1474.443155	688.0
1474.964927	685.0
1475.486644	688.4000244
1476.008306	687.4000244
1476.529913	689.4000244
1477.051465	687.0
1477.572962	689.0
1478.094405	683.4000244
1478.615793	689.0
1479.137126	687.0
1479.658404	689.7999878
1480.179627	684.7999878
1480.700795	689.4000244
1481.221909	689.4000244
1481.742967	686.2000122
1482.263971	686.5999756
1482.78492	689.5999756
1483.305815	686.4000244
1483.826654	688.2000122
1484.347439	688.2000122
1484.868169	684.2000122
1485.388844	686.2000122
1485.909464	685.5999756
1486.43003	689.2000122
1486.95054	689.2000122
1487.470996	688.5999756
1487.991397	686.4000244
1488.511744	686.0
1489.032035	687.0
1489.552272	688.5999756
1490.072454	687.0
1490.592581	690.0
1491.112654	689.2000122
1491.632671	684.5999756
1492.152634	688.2000122
1492.672542	684.2000122
1493.192396	687.4000244
1493.712195	685.7999878
1494.231939	683.7999878
1494.751628	688.5999756
1495.271262	684.7999878
1495.790842	688.7999878
1496.310367	683.2000122
1496.829837	686.0
1497.349253	688.4000244
1497.868614	686.2000122
1498.38792	687.2000122
1498.907171	684.5999756
1499.426368	689.4000244
1499.94551	691.4000244
1500.464597	681.7999878
1500.98363	685.7999878
1501.502607	686.7999878
1502.021531	687.7999878
1502.540399	687.0
1503.059213	682.2000122
1503.577972	685.7999878
1504.096676	686.0
1504.615326	685.0
1505.133921	685.4000244
1505.652462	684.4000244
1506.170947	686.2000122
1506.689378	684.0
1507.207755	682.0
1507.726077	685.7999878
1508.244344	685.4000244
1508.762556	686.0
1509.280714	686.0
1509.798817	687.2000122
1510.316865	685.5999756
1510.834859	693.5999756
1511.352799	689.4000244
1511.870683	683.5999756
1512.388513	685.5999756
1512.906288	682.2000122
1513.424009	686.5999756
1513.941675	684.5999756
1514.459287	686.2000122
1514.976843	685.7999878
1515.494346	681.2000122
1516.011793	684.0
1516.529186	686.5999756
1517.046525	684.7999878
1517.563809	688.7999878
1518.081038	688.7999878
1518.598212	685.7999878
1519.115332	685.2000122
1519.632398	685.7999878
1520.149409	685.2000122
1520.666365	685.2000122
1521.183267	680.4000244
1521.700114	687.5999756
1522.216907	688.5999756
1522.733645	688.5999756
1523.250328	686.5999756
1523.766957	688.0
1524.283531	687.0
1524.800051	683.0
1525.316516	686.2000122
1525.832927	683.5999756
1526.349283	685.7999878
1526.865585	684.4000244
1527.381832	684.2000122
1527.898025	687.5999756
1528.414163	687.5999756
1528.930246	684.0
1529.446275	689.2000122
1529.96225	687.5999756
1530.47817	685.2000122
1530.994035	685.5999756
1531.509846	684.7999878
1532.025602	685.7999878
1532.541304	688.2000122
1533.056952	685.0
1533.572545	686.7999878
1534.088083	685.5999756
1534.603567	685.5999756
1535.118997	684.0
1535.634372	686.0
1536.149692	685.5999756
1536.664958	682.0
1537.18017	686.4000244
1537.695327	687.7999878
1538.210429	685.7999878
1538.725477	685.0
1539.240471	685.5999756
1539.75541	690.5999756
1540.270295	686.4000244
1540.785126	684.2000122
1541.299901	688.2000122
1541.814623	684.5999756
1542.32929	687.7999878
1542.843903	684.7999878
1543.358461	685.7999878
1543.872964	685.5999756
1544.387414	685.5999756
1544.901809	684.2000122
1545.416149	684.0
1545.930435	687.0
1546.444667	686.2000122
1546.958844	685.4000244
1547.472967	685.0
1547.987035	682.0
1548.501049	684.7999878
1549.015009	685.4000244
1549.528914	684.7999878
1550.042765	684.5999756
1550.556561	685.4000244
1551.070303	688.2000122
1551.583991	686.2000122
1552.097624	684.2000122
1552.611203	683.2000122
1553.124728	685.0
1553.638198	685.0
1554.151614	682.7999878
1554.664975	684.2000122
1555.178282	687.5999756
1555.691535	686.2000122
1556.204733	683.4000244
1556.717877	685.0
1557.230967	684.7999878
1557.744003	686.4000244
1558.256984	684.4000244
1558.76991	686.0
1559.282783	684.5999756
1559.795601	689.0
1560.308364	683.0
1560.821074	683.5999756
1561.333729	687.7999878
1561.84633	686.4000244
1562.358876	686.0
1562.871368	682.5999756
1563.383806	683.4000244
1563.89619	682.2000122
1564.408519	686.0
1564.920794	686.5999756
1565.433015	682.2000122
1565.945181	687.2000122
1566.457293	685.7999878
1566.969351	687.2000122
1567.481355	682.5999756
1567.993304	685.5999756
1568.505199	682.7999878
1569.01704	684.7999878
1569.528826	685.0
1570.040558	687.7999878
1570.552236	688.4000244
1571.06386	686.2000122
1571.575429	687.0
1572.086945	684.4000244
1572.598406	688.4000244
1573.109812	684.2000122
1573.621165	684.2000122
1574.132463	683.7999878
1574.643707	687.4000244
1575.154897	686.0
1575.666033	688.7999878
1576.177114	686.4000244
1576.688141	687.5999756
1577.199114	683.7999878
1577.710033	684.5999756
1578.220897	687.4000244
1578.731708	686.5999756
1579.242464	686.5999756
1579.753166	686.4000244
1580.263813	687.0
1580.774407	685.2000122
1581.284946	688.5999756
1581.795432	682.5999756
1582.305863	686.7999878
1582.816239	688.7999878
1583.326562	686.0
1583.836831	684.2000122
1584.347045	688.2000122
1584.857205	688.0
1585.367311	689.4000244
1585.877363	687.7999878
1586.387361	685.4000244
1586.897304	687.0
1587.407194	689.2000122
1587.917029	691.4000244
1588.42681	688.4000244
1588.936537	685.7999878
1589.44621	681.5999756
1589.955829	684.5999756
1590.465393	690.2000122
1590.974904	689.0
1591.48436	684.5999756
1591.993762	687.7999878
1592.50311	686.0
