1042.555005	678.7999878
1043.121438	679.7999878
1043.687813	677.4000244
1044.254131	677.4000244
1044.820391	678.4000244
1045.386593	678.0
1045.952737	677.5999756
1046.518824	678.2000122
1047.084853	679.0
1047.650824	676.7999878
1048.216738	674.7999878
1048.782593	673.4000244
1049.348392	675.2000122
1049.914132	676.0
1050.479815	676.2000122
1051.04544	679.5999756
1051.611007	671.7999878
1052.176517	675.0
1052.741968	675.2000122
1053.307363	676.2000122
1053.872699	673.2000122
1054.437978	673.0
1055.003199	675.0
1055.568363	671.4000244
1056.133469	674.5999756
1056.698517	678.4000244
1057.263508	673.4000244
1057.82844	673.7999878
1058.393316	674.0
1058.958133	674.4000244
1059.522893	672.7999878
1060.087596	675.4000244
1060.652241	673.4000244
1061.216828	674.2000122
1061.781357	673.7999878
1062.345829	670.5999756
1062.910243	671.7999878
1063.4746	674.7999878
1064.038899	672.2000122
1064.60314	672.4000244
1065.167324	671.0
1065.731451	671.7999878
1066.295519	671.0
1066.85953	671.4000244
1067.423484	675.2000122
1067.98738	669.7999878
1068.551218	668.4000244
1069.114999	673.5999756
1069.678722	671.2000122
1070.242388	677.0
1070.805996	670.0
1071.369546	668.5999756
1071.933039	670.0
1072.496475	670.0
1073.059853	669.0
1073.623173	672.4000244
1074.186436	671.7999878
1074.749641	672.0
1075.312789	672.2000122
1075.875879	670.4000244
1076.438912	674.5999756
1077.001887	668.7999878
1077.564805	672.7999878
1078.127665	670.7999878
1078.690468	670.4000244
1079.253213	670.2000122
1079.815901	671.7999878
1080.378531	670.2000122
1080.941104	670.0
1081.50362	672.5999756
1082.066077	672.2000122
1082.628478	672.2000122
1083.190821	669.4000244
1083.753106	672.7999878
1084.315334	669.7999878
1084.877505	674.0
1085.439618	670.0
1086.001673	671.5999756
1086.563671	670.4000244
1087.125612	669.5999756
1087.687495	672.7999878
1088.249321	670.4000244
1088.81109	671.4000244
1089.372801	668.5999756
1089.934454	671.7999878
1090.49605	670.0
1091.057589	671.5999756
1091.619071	670.0
1092.180495	672.2000122
1092.741861	674.5999756
1093.30317	673.2000122
1093.864422	668.0
1094.425616	669.7999878
1094.986753	669.4000244
1095.547833	669.7999878
1096.108855	669.0
1096.66982	669.0
1097.230728	675.4000244
1097.791578	674.5999756
1098.35237	669.4000244
1098.913106	672.0
1099.473784	671.2000122
1100.034405	670.2000122
1100.594968	670.4000244
1101.155474	673.5999756
1101.715923	671.5999756
1102.276314	670.5999756
1102.836648	670.5999756
1103.396925	668.2000122
1103.957144	675.5999756
1104.517306	673.5999756
1105.077411	671.0
1105.637459	673.5999756
1106.197449	672.4000244
1106.757382	669.5999756
1107.317257	670.2000122
1107.877075	670.2000122
1108.436836	672.2000122
1108.99654	670.2000122
1109.556187	672.0
1110.115776	673.0
1110.675308	670.7999878
1111.234782	670.5999756
1111.7942	667.5999756
1112.35356	671.0
1112.912862	667.4000244
1113.472108	672.7999878
1114.031296	668.4000244
1114.590427	670.0
1115.149501	671.4000244
1115.708518	672.2000122
1116.267477	674.4000244
1116.826379	670.5999756
1117.385224	670.2000122
1117.944012	672.4000244
1118.502743	671.5999756
1119.061416	670.4000244
1119.620032	669.4000244
1120.178591	673.5999756
1120.737092	669.7999878
1121.295537	672.0
1121.853924	672.7999878
1122.412254	669.4000244
1122.970527	671.5999756
1123.528743	669.4000244
1124.086901	670.0
1124.645003	671.0
1125.203047	669.0
1125.761034	672.4000244
1126.318964	670.2000122
1126.876836	667.4000244
1127.434652	672.4000244
1127.99241	672.2000122
1128.550112	671.0
1129.107756	668.5999756
1129.665343	672.0
1130.222873	672.5999756
1130.780345	671.0
1131.337761	672.4000244
1131.895119	670.4000244
1132.452421	672.5999756
1133.009665	670.7999878
1133.566852	671.2000122
1134.123982	672.7999878
1134.681055	671.4000244
1135.238071	672.0
1135.79503	672.0
1136.351931	667.0
1136.908776	672.2000122
1137.465563	669.5999756
1138.022294	670.7999878
1138.578967	670.0
1139.135583	671.4000244
1139.692142	670.0
1140.248645	671.5999756
1140.80509	669.7999878
1141.361478	672.5999756
1141.917809	670.7999878
1142.474083	668.0
1143.030299	673.2000122
1143.586459	675.2000122
1144.142562	674.7999878
1144.698608	674.2000122
1145.254596	669.7999878
1145.810528	671.7999878
1146.366403	673.0
1146.922221	673.4000244
1147.477981	677.4000244
1148.033685	675.7999878
1148.589332	670.4000244
1149.144921	676.7999878
1149.700454	678.5999756
1150.255929	692.2000122
1150.811348	718.5999756
1151.36671	700.2000122
1151.922014	681.2000122
1152.477262	672.2000122
1153.032453	669.7999878
1153.587587	668.4000244
1154.142664	671.4000244
1154.697683	672.2000122
1155.252646	672.5999756
1155.807552	670.5999756
1156.362401	673.0
1156.917193	667.2000122
1157.471928	673.0
1158.026607	670.5999756
1158.581228	669.4000244
1159.135792	670.5999756
1159.690299	671.7999878
1160.24475	671.5999756
1160.799143	669.7999878
1161.35348	666.2000122
1161.90776	669.4000244
1162.461983	671.4000244
1163.016149	670.7999878
1163.570258	670.0
1164.12431	668.4000244
1164.678305	670.4000244
1165.232243	667.5999756
1165.786125	670.5999756
1166.339949	669.5999756
1166.893717	669.4000244
1167.447428	673.5999756
1168.001082	671.0
1168.554679	668.5999756
1169.108219	669.2000122
1169.661702	670.4000244
1170.215129	670.0
1170.768498	671.4000244
1171.321811	670.4000244
1171.875067	667.7999878
1172.428266	669.7999878
1172.981409	671.2000122
1173.534494	668.5999756
1174.087523	668.7999878
1174.640495	669.7999878
1175.19341	670.7999878
1175.746268	670.5999756
1176.299069	669.5999756
1176.851814	673.5999756
1177.404501	673.7999878
1177.957132	671.4000244
1178.509707	668.7999878
1179.062224	667.0
1179.614685	670.2000122
1180.167088	672.0
1180.719435	672.0
1181.271726	668.0
1181.823959	669.4000244
1182.376136	670.2000122
1182.928256	672.5999756
1183.480319	669.2000122
1184.032325	669.2000122
1184.584275	672.7999878
1185.136168	671.4000244
1185.688004	669.2000122
1186.239784	669.0
1186.791506	672.0
1187.343172	668.0
1187.894781	671.2000122
1188.446334	671.5999756
1188.99783	671.2000122
1189.549269	671.2000122
1190.100651	669.5999756
1190.651977	670.2000122
1191.203246	670.7999878
1191.754458	671.4000244
1192.305613	671.0
1192.856712	672.4000244
1193.95874	665.7999878
1194.509669	672.4000244
1195.060541	669.4000244
1195.611356	670.0
1196.162115	669.2000122
1196.712817	673.2000122
1197.263462	668.5999756
1197.814051	665.5999756
1198.364583	673.7999878
1198.915058	668.5999756
1199.465477	667.4000244
1200.015839	673.0
1200.566145	669.7999878
1201.116394	671.0
1201.666586	667.5999756
1202.216721	669.4000244
1202.7668	671.5999756
1203.316823	668.5999756
1203.866788	669.2000122
1204.416697	667.7999878
1204.96655	670.2000122
1205.516346	667.7999878
1206.066085	668.4000244
1206.615768	671.5999756
1207.165394	671.2000122
1207.714963	670.7999878
1208.264476	668.2000122
1208.813932	669.0
1209.363332	669.4000244
1209.912675	672.4000244
1210.461962	671.5999756
1211.011192	671.2000122
1211.560365	668.5999756
1212.109482	670.5999756
1212.658542	669.2000122
1213.207546	669.5999756
1213.756493	670.4000244
1214.305384	668.5999756
1214.854218	670.0
1215.402995	670.5999756
1215.951716	668.4000244
1216.500381	669.2000122
1217.048989	668.4000244
1217.59754	674.5999756
1218.146035	671.7999878
1218.694473	668.5999756
1219.242855	669.2000122
1219.79118	669.7999878
1220.339449	668.2000122
1220.887662	669.5999756
1221.435817	669.7999878
1221.983917	670.4000244
1222.531959	672.4000244
1223.079946	672.2000122
1223.627876	670.5999756
1224.175749	670.0
1224.723566	667.7999878
1225.271326	667.7999878
1225.81903	668.7999878
1226.366678	671.2000122
1226.914269	670.4000244
1227.461803	670.4000244
1228.009281	667.2000122
1228.556703	670.4000244
1229.104068	669.7999878
1229.651377	669.7999878
1230.198629	673.0
1230.745825	669.7999878
1231.292965	672.4000244
1231.840048	670.5999756
1232.387074	670.4000244
1232.934044	668.5999756
1233.480958	669.5999756
1234.027815	670.7999878
1234.574616	668.2000122
1235.121361	668.2000122
1235.668049	670.5999756
1236.214681	669.7999878
1236.761256	669.5999756
1237.307775	668.5999756
1237.854237	668.2000122
1238.400643	667.7999878
1238.946993	672.2000122
1239.493287	668.7999878
1240.039524	670.4000244
1240.585704	671.0
1241.131828	670.2000122
1241.677896	668.4000244
1242.223908	671.0
1242.769863	669.5999756
1243.315762	673.0
1243.861604	669.7999878
1244.40739	667.4000244
1244.95312	669.0
1245.498794	671.5999756
1246.044411	673.7999878
1246.589972	667.4000244
1247.135476	670.5999756
1247.680924	667.2000122
1248.226316	671.5999756
1248.771652	669.0
1249.316931	670.2000122
1249.862154	666.0
1250.40732	670.4000244
1250.95243	668.7999878
1251.497484	670.0
1252.042482	669.7999878
1252.587423	668.5999756
1253.132309	670.7999878
1253.677137	667.5999756
1254.22191	671.0
1254.766626	667.7999878
1255.311286	670.5999756
1255.85589	667.4000244
1256.400437	668.4000244
1256.944929	665.2000122
1257.489363	670.0
1258.033742	669.5999756
1258.578065	669.0
1259.122331	671.5999756
1259.666541	670.2000122
1260.210694	680.0
1260.754792	670.4000244
1261.298833	668.4000244
1261.842818	669.7999878
1262.386747	669.7999878
1262.930619	670.4000244
1263.474436	669.4000244
1264.018196	671.2000122
1264.5619	676.5999756
1265.105548	679.0
1265.649139	680.4000244
1266.192674	675.2000122
1266.736154	671.4000244
1267.279576	671.2000122
1267.822943	668.4000244
1268.366254	670.0
1268.909508	669.2000122
1269.452706	669.5999756
1269.995848	668.7999878
1270.538934	666.5999756
1271.081964	669.2000122
1271.624937	668.7999878
1272.167855	665.7999878
1272.710716	669.7999878
1273.253521	668.4000244
1273.79627	671.0
1274.338962	665.0
1274.881599	668.4000244
1275.42418	669.0
1275.966704	669.4000244
1276.509172	665.4000244
1277.051584	667.5999756
1277.59394	667.5999756
1278.13624	670.0
1278.678484	671.5999756
1279.220671	670.4000244
1279.762803	669.5999756
1280.304878	668.2000122
1280.846897	670.5999756
1281.388861	669.4000244
1281.930768	668.2000122
1282.472619	671.2000122
1283.014414	670.4000244
1283.556152	673.0
1284.097835	675.2000122
1284.639462	694.5999756
1285.181032	759.2000122
1285.722547	843.5999756
1286.264005	761.7999878
1286.805408	687.7999878
1287.346754	675.4000244
1287.888044	673.2000122
1288.429278	673.5999756
1288.970457	669.5999756
1289.511579	667.4000244
1290.052645	665.7999878
1290.593655	667.4000244
1291.134609	668.0
1291.675507	667.2000122
1292.216349	669.7999878
1292.757135	668.2000122
1293.297865	669.5999756
1293.838539	669.4000244
1294.379156	666.0
1294.919718	669.0
1295.460224	671.5999756
1296.000674	668.0
1296.541068	668.7999878
1297.081406	667.2000122
1297.621688	671.2000122
1298.161913	668.0
1298.702083	667.5999756
1299.242197	667.4000244
1299.782255	669.5999756
1300.322257	663.0
1300.862203	670.0
1301.402093	669.2000122
1301.941927	666.7999878
1302.481705	668.2000122
1303.021427	668.2000122
1303.561094	669.2000122
1304.100704	668.5999756
1304.640258	666.5999756
1305.179756	668.4000244
1305.719199	670.4000244
1306.258585	669.7999878
1306.797916	667.2000122
1307.33719	668.0
1307.876409	670.2000122
1308.415572	668.4000244
1308.954679	668.4000244
1309.49373	668.0
1310.032725	671.5999756
1310.571664	669.4000244
1311.110547	668.2000122
1311.649374	667.7999878
1312.188146	669.2000122
1312.726861	666.4000244
1313.265521	668.0
1313.804125	667.7999878
1314.342672	669.2000122
1314.881164	667.5999756
1315.419601	669.4000244
1315.957981	669.5999756
1316.496305	670.0
1317.034574	668.5999756
1317.572786	670.5999756
1318.110943	667.0
1318.649044	667.7999878
1319.187089	669.2000122
1319.725078	667.7999878
1320.263012	665.4000244
1320.800889	667.0
1321.338711	667.4000244
1321.876477	667.0
1322.414187	669.4000244
1322.951841	666.2000122
1323.489439	668.4000244
1324.026982	672.2000122
1324.564469	667.4000244
1325.101899	668.2000122
1325.639275	670.5999756
1326.176594	668.4000244
1326.713857	668.5999756
1327.251065	666.0
1327.788217	665.2000122
1328.325313	668.0
1328.862353	667.7999878
1329.399338	671.2000122
1329.936267	664.5999756
1330.47314	668.5999756
1331.009957	669.0
1331.546718	668.7999878
1332.083424	666.0
1332.620074	666.7999878
1333.156668	667.7999878
1333.693207	667.5999756
1334.229689	667.0
1334.766116	668.4000244
1335.302487	664.4000244
1335.838803	668.5999756
1336.375062	668.4000244
1336.911266	667.0
1337.447414	669.2000122
1337.983507	669.7999878
1338.519543	669.5999756
1339.055524	666.0
1339.59145	669.4000244
1340.127319	670.5999756
1340.663133	670.7999878
1341.198891	666.0
1341.734594	667.5999756
1342.27024	667.2000122
1342.805831	670.2000122
1343.341367	668.0
1343.876846	667.2000122
1344.41227	670.4000244
1344.947639	667.0
1345.482951	668.5999756
1346.018208	667.5999756
1346.553409	667.4000244
1347.088555	668.0
1347.623645	666.0
1348.158679	669.5999756
1348.693658	666.7999878
1349.22858	666.0
1349.763448	668.5999756
1350.298259	668.0
1350.833015	664.2000122
1351.367716	671.0
1351.90236	668.4000244
1352.436949	667.4000244
1352.971483	664.0
1353.50596	666.7999878
1354.040383	669.0
1354.574749	670.2000122
1355.10906	666.7999878
1355.643315	670.4000244
1356.177515	670.2000122
1356.711659	668.4000244
1357.245747	669.2000122
1357.77978	668.0
1358.313757	666.7999878
1358.847679	668.4000244
1359.381545	670.7999878
1359.915356	667.0
1360.44911	668.4000244
1360.98281	667.5999756
1361.516453	667.0
1362.050042	668.5999756
1362.583574	669.4000244
1363.117051	668.2000122
1363.650473	666.4000244
1364.183838	670.0
1364.717149	666.5999756
1365.250404	664.5999756
1365.783603	669.4000244
1366.316746	669.0
1366.849834	671.2000122
1367.382867	667.7999878
1367.915844	668.5999756
1368.448766	666.5999756
1368.981631	669.7999878
1369.514442	670.0
1370.047197	669.2000122
1370.579896	674.0
1371.11254	672.5999756
1371.645128	667.4000244
1372.177661	669.7999878
1372.710139	667.5999756
1373.24256	667.2000122
1373.774927	664.7999878
1374.307238	666.7999878
1374.839493	668.7999878
1375.371693	669.5999756
1375.903837	669.4000244
1376.435926	669.2000122
1376.967959	667.0
1377.499937	668.7999878
1378.03186	667.7999878
1378.563727	669.2000122
1379.095538	668.5999756
1379.627294	666.2000122
1380.158995	668.0
1380.69064	669.2000122
1381.222229	667.7999878
1381.753764	668.5999756
1382.285242	667.0
1382.816666	666.7999878
1383.348033	667.0
1383.879346	667.2000122
1384.410603	669.5999756
1384.941804	668.7999878
1385.472951	673.0
1386.004041	671.4000244
1386.535077	673.0
1387.066056	671.5999756
1387.596981	681.4000244
1388.12785	725.0
1388.658664	903.2000122
1389.189422	932.7999878
1389.720125	727.7999878
1390.250772	686.7999878
1390.781364	676.5999756
1391.311901	671.4000244
1391.842382	669.5999756
1392.372808	671.2000122
1392.903178	668.0
1393.433494	668.5999756
1393.963753	671.0
1394.493958	668.4000244
1395.024107	668.7999878
1395.5542	668.0
1396.084239	668.7999878
1396.614222	670.5999756
1397.144149	669.7999878
1397.674021	667.5999756
1398.203838	667.5999756
1398.7336	670.7999878
1399.263306	668.0
1399.792957	670.4000244
1400.322552	667.2000122
1400.852093	668.2000122
1401.381577	667.2000122
1401.911007	665.7999878
1402.440381	667.2000122
1402.9697	668.5999756
1403.498964	669.7999878
1404.028172	668.4000244
1404.557325	669.7999878
1405.086423	669.0
1405.615465	666.2000122
1406.144452	665.0
1406.673384	667.4000244
1407.20226	668.0
1407.731082	667.7999878
1408.259847	669.7999878
1408.788558	671.2000122
1409.317213	675.5999756
1409.845814	686.0
1410.374358	691.7999878
1410.902848	682.2000122
1411.431282	672.4000244
1411.959661	668.4000244
1412.487985	666.4000244
1413.016253	667.0
1413.544467	666.5999756
1414.072625	667.4000244
1414.600727	667.5999756
1415.128775	669.0
1415.656767	679.0
1416.184704	667.5999756
1416.712586	666.4000244
1417.240413	668.0
1417.768184	668.4000244
1418.2959	668.2000122
1418.823561	669.7999878
1419.351167	668.7999878
1419.878717	667.5999756
1420.406213	667.7999878
1420.933653	668.7999878
1421.461038	666.7999878
1421.988367	669.2000122
1422.515642	668.7999878
1423.042861	667.4000244
1423.570025	666.0
1424.097134	666.0
1424.624188	665.5999756
1425.151187	670.0
1425.67813	670.7999878
1426.205018	667.4000244
1426.731851	665.4000244
1427.258629	668.0
1427.785352	667.4000244
1428.31202	666.7999878
1428.838632	667.2000122
1429.365189	667.5999756
1429.891692	670.5999756
1430.418139	668.0
1430.94453	669.4000244
1431.470867	668.5999756
1431.997149	669.5999756
1432.523375	665.4000244
1433.049546	664.5999756
1433.575663	664.5999756
1434.101724	666.2000122
1434.62773	667.4000244
1435.15368	668.5999756
1435.679576	667.2000122
1436.205417	665.4000244
1436.731202	667.4000244
1437.256933	664.7999878
1437.782608	665.5999756
1438.308228	666.7999878
1438.833793	666.2000122
1439.359303	666.0
1439.884758	669.0
1440.410158	667.5999756
1440.935503	667.5999756
1441.460793	666.0
1441.986027	666.4000244
1442.511207	666.4000244
1443.036331	668.2000122
1443.561401	668.0
1444.086415	668.0
1444.611374	667.2000122
1445.136279	665.4000244
1445.661128	668.4000244
1446.185922	668.0
1446.710661	665.5999756
1447.235345	669.0
1447.759974	666.5999756
1448.284548	667.4000244
1448.809067	668.2000122
1449.333531	664.7999878
1449.85794	665.7999878
1450.382294	666.7999878
1450.906593	666.4000244
1451.430837	667.7999878
1451.955026	664.5999756
1452.47916	663.7999878
1453.003239	666.7999878
1453.527263	665.7999878
1454.051231	668.5999756
1454.575145	666.4000244
1455.099004	663.7999878
1455.622808	666.5999756
1456.146557	665.5999756
1456.670251	668.2000122
1457.19389	664.5999756
1457.717474	667.5999756
1458.241003	668.0
1458.764477	667.5999756
1459.287896	669.2000122
1459.81126	665.7999878
1460.334569	666.5999756
1460.857824	665.0
1461.381023	668.2000122
1461.904167	668.5999756
1462.427257	668.4000244
1462.950291	670.2000122
1463.473271	667.2000122
1463.996195	670.0
1464.519065	666.4000244
1465.041879	666.0
1465.564639	666.2000122
1466.087344	667.2000122
1466.609994	663.4000244
1467.132589	666.7999878
1467.655129	666.0
1468.177614	669.7999878
1468.700045	666.0
1469.22242	669.7999878
1469.744741	666.0
1470.267006	665.5999756
1470.789217	665.2000122
1471.311373	668.2000122
1471.833474	665.2000122
1472.35552	667.2000122
1472.877511	667.5999756
1473.399447	664.5999756
1473.921329	666.0
1474.443155	669.4000244
1474.964927	667.5999756
1475.486644	668.0
1476.008306	669.2000122
1476.529913	669.4000244
1477.051465	666.5999756
1477.572962	666.4000244
1478.094405	665.5999756
1478.615793	667.5999756
1479.137126	664.2000122
1479.658404	665.7999878
1480.179627	669.5999756
1480.700795	666.2000122
1481.221909	666.5999756
1481.742967	665.0
1482.263971	665.4000244
1482.78492	668.7999878
1483.305815	668.0
1483.826654	665.7999878
1484.347439	666.5999756
1484.868169	667.4000244
1485.388844	668.4000244
1485.909464	666.4000244
1486.43003	669.2000122
1486.95054	665.5999756
1487.470996	666.2000122
1487.991397	662.5999756
1488.511744	666.7999878
1489.032035	664.7999878
1489.552272	666.0
1490.072454	664.2000122
1490.592581	667.4000244
1491.112654	664.5999756
1491.632671	666.4000244
1492.152634	666.2000122
1492.672542	669.7999878
1493.192396	663.7999878
1493.712195	666.4000244
1494.231939	667.0
1494.751628	669.2000122
1495.271262	665.4000244
1495.790842	665.4000244
1496.310367	665.0
1496.829837	666.4000244
1497.349253	665.5999756
1497.868614	667.5999756
1498.38792	663.2000122
1498.907171	668.0
1499.426368	665.7999878
1499.94551	671.2000122
1500.464597	665.5999756
1500.98363	663.0
1501.502607	662.7999878
1502.021531	664.5999756
1502.540399	668.4000244
1504.096676	668.2000122
1504.615326	666.4000244
1505.133921	666.0
1505.652462	668.4000244
1506.170947	668.4000244
1506.689378	665.2000122
1507.207755	666.7999878
1507.726077	666.5999756
1508.244344	668.5999756
1508.762556	664.0
1509.280714	665.4000244
1509.798817	665.5999756
1510.316865	664.7999878
1510.834859	671.7999878
1511.352799	667.5999756
1511.870683	667.4000244
1512.388513	669.5999756
1512.906288	665.2000122
1513.424009	663.7999878
1513.941675	665.0
1514.459287	667.7999878
1514.976843	666.4000244
1515.494346	665.2000122
1516.011793	665.5999756
1516.529186	665.7999878
1517.046525	665.0
1517.563809	666.0
1518.081038	666.4000244
1518.598212	666.4000244
1519.115332	669.5999756
1519.632398	665.2000122
1520.149409	667.7999878
1520.666365	663.4000244
1521.183267	666.4000244
1521.700114	663.5999756
1522.216907	665.7999878
1522.733645	667.2000122
1523.250328	664.4000244
1523.766957	668.0
1524.283531	666.4000244
1524.800051	667.0
1525.316516	666.0
1525.832927	663.7999878
1526.349283	666.0
1526.865585	663.0
1527.381832	663.7999878
1527.898025	667.0
1528.414163	667.7999878
1528.930246	668.4000244
1529.446275	667.0
1529.96225	666.2000122
1530.47817	666.2000122
1530.994035	663.5999756
1531.509846	666.2000122
1532.025602	665.7999878
1532.541304	666.4000244
1533.056952	667.4000244
1533.572545	665.7999878
1534.088083	666.5999756
1534.603567	665.2000122
1535.118997	665.2000122
1535.634372	668.5999756
1536.149692	666.5999756
1536.664958	664.7999878
1537.18017	665.0
1537.695327	666.5999756
1538.210429	670.2000122
1538.725477	666.5999756
1539.240471	667.5999756
1539.75541	667.2000122
1540.270295	666.5999756
1540.785126	665.2000122
1541.299901	664.4000244
1541.814623	667.7999878
1542.32929	664.2000122
1542.843903	662.5999756
1543.358461	668.0
1543.872964	664.5999756
1544.387414	668.2000122
1544.901809	663.7999878
1545.416149	665.5999756
1545.930435	666.0
1546.444667	669.0
1546.958844	667.4000244
1547.472967	664.2000122
1547.987035	665.2000122
1548.501049	665.5999756
1549.015009	666.4000244
1549.528914	665.7999878
1550.042765	663.7999878
1550.556561	663.4000244
1551.070303	664.2000122
1551.583991	665.5999756
1552.097624	664.4000244
1552.611203	664.2000122
1553.124728	666.4000244
1553.638198	667.5999756
1554.151614	662.7999878
1554.664975	663.4000244
1555.178282	666.0
1555.691535	665.7999878
1556.204733	665.4000244
1556.717877	666.2000122
1557.230967	666.4000244
1557.744003	667.5999756
1558.256984	666.0
1558.76991	664.5999756
1559.282783	665.5999756
1559.795601	668.2000122
1560.308364	664.5999756
1560.821074	664.2000122
1561.333729	663.4000244
1561.84633	663.7999878
1562.358876	666.5999756
1562.871368	669.0
1563.383806	668.7999878
1563.89619	664.7999878
1564.408519	665.2000122
1564.920794	666.0
1565.433015	666.0
1565.945181	668.0
1566.457293	667.2000122
1566.969351	669.4000244
1567.481355	665.4000244
1567.993304	664.4000244
1568.505199	663.5999756
1569.01704	664.0
1569.528826	667.5999756
1570.040558	665.5999756
1570.552236	666.2000122
1571.06386	666.4000244
1571.575429	665.7999878
1572.086945	666.4000244
1572.598406	666.0
1573.109812	665.0
1573.621165	666.7999878
1574.132463	665.7999878
1574.643707	666.5999756
1575.154897	664.0
1575.666033	669.5999756
1576.177114	665.5999756
1576.688141	663.4000244
1577.199114	666.2000122
1577.710033	663.5999756
1578.220897	665.0
1578.731708	665.2000122
1579.242464	666.5999756
1579.753166	664.7999878
1580.263813	665.0
1580.774407	664.7999878
1581.284946	666.0
1581.795432	665.4000244
1582.305863	665.7999878
1582.816239	662.7999878
1583.326562	664.2000122
1583.836831	665.2000122
1584.347045	666.7999878
1584.857205	664.0
1585.367311	667.0
1585.877363	667.2000122
1586.387361	664.5999756
1586.897304	662.4000244
1587.407194	664.4000244
1587.917029	667.5999756
1588.42681	667.0
1588.936537	664.5999756
1589.44621	662.7999878
1589.955829	667.4000244
1590.465393	666.0
1590.974904	665.4000244
1591.48436	665.0
1591.993762	666.4000244
1592.50311	662.2000122
