1042.555005	801.5999756
1043.121438	799.7999878
1043.687813	792.7999878
1044.254131	793.0
1044.820391	796.0
1045.386593	794.2000122
1045.952737	795.5999756
1046.518824	797.0
1047.084853	795.4000244
1047.650824	792.5999756
1048.216738	796.7999878
1048.782593	790.7999878
1049.348392	794.5999756
1049.914132	791.5999756
1050.479815	793.5999756
1051.04544	796.5999756
1051.611007	795.0
1052.176517	796.0
1052.741968	797.5999756
1053.307363	794.2000122
1053.872699	789.5999756
1054.437978	793.7999878
1055.003199	793.4000244
1055.568363	792.7999878
1056.133469	788.4000244
1056.698517	793.5999756
1057.263508	792.0
1057.82844	786.7999878
1058.393316	793.7999878
1058.958133	794.5999756
1059.522893	786.2000122
1060.087596	788.0
1060.652241	790.4000244
1061.216828	794.4000244
1061.781357	792.4000244
1062.345829	801.2000122
1062.910243	791.5999756
1063.4746	791.0
1064.038899	784.2000122
1064.60314	792.5999756
1065.167324	793.2000122
1065.731451	785.5999756
1066.295519	791.4000244
1066.85953	794.0
1067.423484	793.0
1067.98738	795.7999878
1068.551218	789.2000122
1069.114999	794.4000244
1069.678722	792.5999756
1070.242388	798.7999878
1070.805996	787.7999878
1071.369546	798.2000122
1071.933039	792.4000244
1072.496475	786.5999756
1073.059853	790.7999878
1073.623173	789.0
1074.186436	789.4000244
1074.749641	791.7999878
1075.312789	785.2000122
1075.875879	788.5999756
1076.438912	786.0
1077.001887	783.2000122
1077.564805	788.4000244
1078.127665	784.7999878
1078.690468	795.0
1079.253213	788.7999878
1079.815901	791.2000122
1080.378531	791.2000122
1080.941104	786.5999756
1081.50362	788.2000122
1082.066077	784.0
1082.628478	784.5999756
1083.190821	788.0
1083.753106	789.0
1084.315334	786.7999878
1084.877505	788.7999878
1085.439618	794.0
1086.001673	786.4000244
1086.563671	793.4000244
1087.125612	785.0
1087.687495	782.2000122
1088.249321	790.0
1088.81109	791.5999756
1089.372801	783.2000122
1089.934454	779.7999878
1090.49605	786.7999878
1091.057589	783.5999756
1091.619071	783.0
1092.180495	784.0
1092.741861	790.0
1093.30317	791.2000122
1093.864422	785.4000244
1094.425616	779.7999878
1094.986753	785.7999878
1095.547833	786.5999756
1096.108855	778.2000122
1096.66982	780.5999756
1097.230728	786.7999878
1097.791578	786.7999878
1098.35237	784.7999878
1098.913106	783.7999878
1099.473784	782.2000122
1100.034405	784.4000244
1100.594968	781.7999878
1101.155474	785.2000122
1101.715923	779.2000122
1102.276314	785.4000244
1102.836648	783.4000244
1103.396925	785.4000244
1103.957144	785.7999878
1104.517306	778.2000122
1105.077411	783.2000122
1105.637459	778.4000244
1106.197449	779.5999756
1106.757382	786.7999878
1107.317257	784.0
1107.877075	787.5999756
1108.436836	788.7999878
1108.99654	780.5999756
1109.556187	787.4000244
1110.115776	782.5999756
1110.675308	782.0
1111.234782	780.0
1111.7942	782.2000122
1112.35356	784.0
1112.912862	783.5999756
1113.472108	779.7999878
1114.031296	783.0
1114.590427	785.5999756
1115.149501	776.2000122
1115.708518	788.4000244
1116.267477	781.5999756
1116.826379	774.2000122
1117.385224	784.7999878
1117.944012	782.4000244
1118.502743	775.7999878
1119.061416	782.5999756
1119.620032	778.5999756
1120.178591	777.4000244
1120.737092	774.7999878
1121.295537	780.2000122
1121.853924	785.0
1122.412254	778.4000244
1122.970527	782.4000244
1123.528743	776.0
1124.086901	775.4000244
1124.645003	781.2000122
1125.203047	777.4000244
1125.761034	775.7999878
1126.318964	785.4000244
1126.876836	779.2000122
1127.434652	781.7999878
1127.99241	777.7999878
1128.550112	782.7999878
1129.107756	786.5999756
1129.665343	778.0
1130.222873	778.5999756
1130.780345	778.4000244
1131.337761	778.7999878
1131.895119	776.0
1132.452421	777.0
1133.009665	785.7999878
1133.566852	780.0
1134.123982	780.4000244
1134.681055	783.5999756
1135.238071	779.5999756
1135.79503	785.0
1136.351931	782.2000122
1136.908776	778.7999878
1137.465563	780.4000244
1138.022294	781.0
1138.578967	781.2000122
1139.135583	781.7999878
1139.692142	783.5999756
1140.248645	782.7999878
1140.80509	777.4000244
1141.361478	777.0
1141.917809	779.7999878
1142.474083	779.4000244
1143.030299	784.5999756
1143.586459	779.0
1144.142562	783.2000122
1144.698608	784.2000122
1145.254596	783.7999878
1145.810528	776.5999756
1146.366403	780.5999756
1146.922221	787.0
1147.477981	778.0
1148.033685	786.2000122
1148.589332	779.0
1149.144921	778.5999756
1149.700454	782.2000122
1150.255929	792.4000244
1150.811348	809.0
1151.36671	809.0
1151.922014	787.2000122
1152.477262	786.2000122
1153.032453	783.2000122
1153.587587	780.2000122
1154.142664	782.7999878
1154.697683	781.2000122
1155.252646	781.0
1155.807552	776.4000244
1156.362401	775.7999878
1156.917193	782.4000244
1157.471928	779.0
1158.026607	778.2000122
1158.581228	778.4000244
1159.135792	778.2000122
1159.690299	784.0
1160.24475	776.2000122
1160.799143	778.5999756
1161.35348	775.4000244
1161.90776	778.0
1162.461983	780.2000122
1163.016149	773.0
1163.570258	772.0
1164.12431	784.0
1164.678305	777.4000244
1165.232243	781.2000122
1165.786125	782.4000244
1166.339949	789.4000244
1167.447428	780.0
1168.001082	775.4000244
1168.554679	775.2000122
1169.108219	773.2000122
1169.661702	780.4000244
1170.215129	780.2000122
1170.768498	779.7999878
1171.321811	778.2000122
1171.875067	779.4000244
1172.428266	778.0
1172.981409	781.0
1173.534494	779.7999878
1174.087523	777.4000244
1174.640495	777.5999756
1175.19341	780.0
1175.746268	784.7999878
1176.299069	777.2000122
1176.851814	774.7999878
1177.404501	778.4000244
1177.957132	781.2000122
1178.509707	777.5999756
1179.062224	774.2000122
1179.614685	775.2000122
1180.167088	773.4000244
1180.719435	775.2000122
1181.271726	773.0
1181.823959	777.4000244
1182.376136	779.4000244
1182.928256	776.2000122
1183.480319	775.2000122
1184.032325	773.0
1184.584275	780.2000122
1185.136168	776.2000122
1185.688004	777.2000122
1186.239784	772.0
1186.791506	773.4000244
1187.343172	776.0
1187.894781	774.7999878
1188.446334	773.4000244
1188.99783	773.2000122
1189.549269	771.0
1190.100651	775.4000244
1190.651977	777.2000122
1191.203246	776.5999756
1191.754458	779.0
1192.305613	780.7999878
1192.856712	777.4000244
1193.95874	771.7999878
1194.509669	769.0
1195.060541	776.5999756
1195.611356	769.5999756
1196.162115	768.4000244
1196.712817	774.2000122
1197.263462	775.2000122
1197.814051	776.2000122
1198.364583	779.0
1198.915058	775.5999756
1199.465477	774.4000244
1200.015839	774.7999878
1200.566145	778.7999878
1201.116394	769.4000244
1201.666586	775.2000122
1202.216721	777.7999878
1202.7668	775.2000122
1203.316823	776.4000244
1203.866788	778.0
1204.416697	775.5999756
1204.96655	771.5999756
1205.516346	773.2000122
1206.066085	775.4000244
1206.615768	773.7999878
1207.165394	771.2000122
1207.714963	772.4000244
1208.264476	767.7999878
1208.813932	771.7999878
1209.363332	779.2000122
1209.912675	774.0
1210.461962	768.7999878
1211.011192	776.7999878
1211.560365	770.4000244
1212.109482	778.7999878
1212.658542	778.7999878
1213.207546	777.7999878
1213.756493	772.4000244
1214.305384	772.2000122
1214.854218	771.7999878
1215.402995	773.7999878
1215.951716	775.4000244
1216.500381	770.2000122
1217.048989	773.5999756
1217.59754	771.7999878
1218.146035	776.4000244
1218.694473	767.5999756
1219.242855	771.2000122
1219.79118	774.5999756
1220.339449	771.5999756
1220.887662	770.5999756
1221.435817	772.5999756
1221.983917	771.4000244
1222.531959	775.4000244
1223.079946	772.4000244
1223.627876	774.0
1224.175749	772.4000244
1224.723566	766.2000122
1225.271326	773.4000244
1225.81903	773.0
1226.366678	770.5999756
1226.914269	770.4000244
1227.461803	769.4000244
1228.009281	776.0
1228.556703	766.7999878
1229.104068	768.7999878
1229.651377	775.4000244
1230.198629	770.7999878
1230.745825	773.5999756
1231.292965	769.2000122
1231.840048	770.5999756
1232.387074	774.2000122
1232.934044	772.7999878
1233.480958	769.0
1234.027815	772.5999756
1234.574616	775.7999878
1235.121361	774.7999878
1235.668049	775.2000122
1236.214681	772.5999756
1236.761256	766.7999878
1237.307775	776.7999878
1237.854237	769.5999756
1238.400643	771.2000122
1238.946993	775.2000122
1239.493287	768.0
1240.039524	769.2000122
1240.585704	770.5999756
1241.131828	767.7999878
1241.677896	776.7999878
1242.223908	771.7999878
1242.769863	773.5999756
1243.315762	767.4000244
1243.861604	766.7999878
1244.40739	764.4000244
1244.95312	777.7999878
1245.498794	766.2000122
1246.044411	768.7999878
1246.589972	770.2000122
1247.135476	777.5999756
1247.680924	767.7999878
1248.226316	769.0
1248.771652	772.5999756
1249.316931	774.7999878
1249.862154	772.2000122
1250.40732	768.2000122
1250.95243	767.7999878
1251.497484	773.0
1252.042482	768.2000122
1252.587423	771.5999756
1253.132309	770.4000244
1253.677137	772.7999878
1254.22191	774.2000122
1254.766626	766.2000122
1255.311286	771.5999756
1255.85589	765.2000122
1256.400437	767.5999756
1256.944929	768.7999878
1257.489363	768.4000244
1258.033742	762.7999878
1258.578065	773.0
1259.122331	769.0
1259.666541	774.2000122
1260.210694	779.2000122
1260.754792	768.0
1261.298833	768.0
1261.842818	769.2000122
1262.386747	772.4000244
1262.930619	778.4000244
1263.474436	767.4000244
1264.018196	767.0
1264.5619	770.2000122
1265.105548	779.2000122
1265.649139	786.2000122
1266.192674	785.5999756
1266.736154	774.0
1267.279576	768.7999878
1267.822943	770.2000122
1268.366254	769.7999878
1268.909508	767.5999756
1269.452706	767.7999878
1269.995848	770.0
1270.538934	768.0
1271.081964	769.4000244
1271.624937	770.5999756
1272.167855	766.0
1272.710716	767.2000122
1273.253521	768.4000244
1273.79627	767.0
1274.338962	768.2000122
1274.881599	767.2000122
1275.42418	770.5999756
1275.966704	762.5999756
1276.509172	764.7999878
1277.051584	767.7999878
1277.59394	769.7999878
1278.13624	771.2000122
1278.678484	764.2000122
1279.220671	776.2000122
1279.762803	766.7999878
1280.304878	767.5999756
1280.846897	770.2000122
1281.388861	770.2000122
1281.930768	768.2000122
1282.472619	765.5999756
1283.014414	773.5999756
1283.556152	771.5999756
1284.097835	773.2000122
1284.639462	777.7999878
1285.181032	820.5999756
1285.722547	978.5999756
1286.264005	1005.599976
1286.805408	817.7999878
1287.346754	780.5999756
1287.888044	772.7999878
1288.429278	771.7999878
1288.970457	769.7999878
1289.511579	765.0
1290.052645	768.7999878
1290.593655	771.0
1291.134609	769.4000244
1291.675507	762.0
1292.216349	761.7999878
1292.757135	769.5999756
1293.297865	766.2000122
1293.838539	761.7999878
1294.379156	764.2000122
1294.919718	766.0
1295.460224	760.5999756
1296.000674	765.2000122
1296.541068	762.0
1297.081406	764.2000122
1297.621688	765.0
1298.161913	765.2000122
1298.702083	765.0
1299.242197	761.4000244
1299.782255	766.7999878
1300.322257	766.4000244
1300.862203	768.4000244
1301.402093	762.4000244
1301.941927	760.2000122
1302.481705	760.5999756
1303.021427	771.0
1303.561094	759.0
1304.100704	766.5999756
1304.640258	763.4000244
1305.179756	763.2000122
1305.719199	763.4000244
1306.258585	769.0
1306.797916	764.2000122
1307.33719	760.0
1307.876409	759.5999756
1308.415572	763.7999878
1308.954679	768.2000122
1309.49373	761.2000122
1310.032725	766.2000122
1310.571664	758.5999756
1311.110547	763.5999756
1311.649374	763.5999756
1312.188146	764.7999878
1312.726861	760.7999878
1313.265521	759.2000122
1313.804125	760.4000244
1314.342672	758.2000122
1314.881164	761.0
1315.419601	762.7999878
1315.957981	761.0
1316.496305	768.0
1317.034574	764.2000122
1317.572786	758.7999878
1318.110943	761.0
1318.649044	763.4000244
1319.187089	765.2000122
1319.725078	761.4000244
1320.263012	763.2000122
1320.800889	757.4000244
1321.338711	765.2000122
1321.876477	763.4000244
1322.414187	764.4000244
1322.951841	760.5999756
1323.489439	761.0
1324.026982	768.0
1324.564469	764.5999756
1325.101899	766.4000244
1325.639275	762.0
1326.176594	766.2000122
1326.713857	766.5999756
1327.251065	761.0
1327.788217	765.0
1328.325313	763.5999756
1328.862353	758.7999878
1329.399338	764.4000244
1329.936267	760.2000122
1330.47314	760.2000122
1331.009957	765.2000122
1331.546718	761.2000122
1332.083424	764.5999756
1332.620074	762.0
1333.156668	762.7999878
1333.693207	765.2000122
1334.229689	759.2000122
1334.766116	758.4000244
1335.302487	761.4000244
1335.838803	760.7999878
1336.375062	757.7999878
1336.911266	760.5999756
1337.447414	761.5999756
1337.983507	759.5999756
1338.519543	767.2000122
1339.055524	765.5999756
1339.59145	755.4000244
1340.127319	764.4000244
1340.663133	760.5999756
1341.198891	756.5999756
1341.734594	763.4000244
1342.27024	764.4000244
1342.805831	761.5999756
1343.341367	765.0
1343.876846	755.2000122
1344.41227	757.7999878
1344.947639	760.0
1345.482951	756.2000122
1346.018208	756.4000244
1346.553409	758.2000122
1347.088555	758.0
1347.623645	759.7999878
1348.158679	760.4000244
1348.693658	758.2000122
1349.22858	759.5999756
1349.763448	766.4000244
1350.298259	761.5999756
1350.833015	766.7999878
1351.367716	765.0
1351.90236	754.4000244
1352.436949	760.0
1352.971483	756.4000244
1353.50596	763.4000244
1354.040383	762.5999756
1354.574749	758.7999878
1355.10906	763.4000244
1355.643315	754.4000244
1356.177515	764.2000122
1356.711659	759.2000122
1357.245747	759.5999756
1357.77978	761.5999756
1358.313757	762.4000244
1358.847679	763.2000122
1359.381545	761.5999756
1359.915356	762.5999756
1360.44911	761.5999756
1360.98281	758.4000244
1361.516453	757.5999756
1362.050042	760.0
1362.583574	763.0
1363.117051	763.4000244
1363.650473	753.7999878
1364.183838	758.2000122
1364.717149	761.7999878
1365.250404	755.2000122
1365.783603	764.2000122
1366.316746	756.5999756
1366.849834	764.2000122
1367.382867	758.7999878
1367.915844	757.2000122
1368.448766	764.2000122
1368.981631	762.7999878
1369.514442	756.4000244
1370.047197	761.2000122
1370.579896	766.2000122
1371.11254	766.7999878
1371.645128	758.0
1372.177661	759.0
1372.710139	752.4000244
1373.24256	755.4000244
1373.774927	756.4000244
1374.307238	760.0
1374.839493	763.4000244
1375.371693	756.5999756
1375.903837	756.7999878
1376.435926	757.0
1376.967959	763.7999878
1377.499937	757.2000122
1378.03186	761.5999756
1378.563727	756.2000122
1379.095538	759.0
1379.627294	755.0
1380.158995	759.5999756
1380.69064	756.4000244
1381.222229	755.4000244
1381.753764	762.5999756
1382.285242	761.0
1382.816666	752.7999878
1383.348033	754.2000122
1383.879346	758.0
1384.410603	759.7999878
1384.941804	756.7999878
1385.472951	761.2000122
1386.004041	765.7999878
1386.535077	761.0
1387.066056	766.4000244
1387.596981	770.0
1388.12785	788.2000122
1388.658664	951.7999878
1389.189422	1217.599976
1389.720125	908.0
1390.250772	785.5999756
1390.781364	763.7999878
1391.311901	763.4000244
1391.842382	760.4000244
1392.372808	759.2000122
1392.903178	755.0
1393.433494	757.4000244
1393.963753	759.2000122
1394.493958	756.4000244
1395.024107	755.2000122
1395.5542	757.2000122
1396.084239	762.0
1396.614222	752.7999878
1397.144149	759.0
1397.674021	752.4000244
1398.203838	757.7999878
1398.7336	756.7999878
1399.263306	754.2000122
1399.792957	756.4000244
1400.322552	751.2000122
1400.852093	755.4000244
1401.381577	759.4000244
1401.911007	752.4000244
1402.440381	764.5999756
1402.9697	759.7999878
1403.498964	752.0
1404.028172	758.2000122
1404.557325	758.7999878
1405.086423	760.4000244
1405.615465	761.2000122
1406.144452	760.5999756
1406.673384	756.4000244
1407.20226	756.4000244
1407.731082	752.0
1408.259847	759.7999878
1408.788558	755.5999756
1409.317213	755.2000122
1409.845814	766.0
1410.374358	796.4000244
1410.902848	782.4000244
1411.431282	768.5999756
1411.959661	755.7999878
1412.487985	753.4000244
1413.016253	752.7999878
1413.544467	749.5999756
1414.072625	759.0
1414.600727	753.4000244
1415.128775	759.4000244
1415.656767	766.4000244
1416.184704	755.4000244
1416.712586	755.0
1417.240413	757.0
1417.768184	760.2000122
1418.2959	757.4000244
1418.823561	755.0
1419.351167	754.7999878
1419.878717	754.2000122
1420.406213	759.0
1420.933653	754.4000244
1421.461038	757.2000122
1421.988367	755.0
1422.515642	753.5999756
1423.042861	755.2000122
1423.570025	752.7999878
1424.097134	751.5999756
1424.624188	755.7999878
1425.151187	752.5999756
1425.67813	758.2000122
1426.205018	747.0
1426.731851	758.0
1427.258629	756.0
1427.785352	751.7999878
1428.31202	753.5999756
1428.838632	755.0
1429.365189	758.5999756
1429.891692	753.0
1430.418139	751.0
1430.94453	751.0
1431.470867	757.0
1431.997149	749.5999756
1432.523375	754.5999756
1433.049546	753.0
1433.575663	751.2000122
1434.101724	751.0
1434.62773	754.0
1435.15368	745.7999878
1435.679576	752.7999878
1436.205417	758.4000244
1436.731202	753.5999756
1437.256933	748.2000122
1437.782608	757.7999878
1438.308228	749.0
1438.833793	756.0
1439.359303	747.4000244
1439.884758	753.5999756
1440.410158	752.5999756
1440.935503	751.5999756
1441.460793	755.2000122
1441.986027	757.0
1442.511207	759.4000244
1443.036331	750.2000122
1443.561401	756.4000244
1444.086415	755.0
1444.611374	754.7999878
1445.136279	751.0
1445.661128	752.2000122
1446.185922	749.7999878
1446.710661	751.7999878
1447.235345	755.5999756
1447.759974	752.7999878
1448.284548	753.7999878
1448.809067	752.5999756
1449.333531	753.0
1449.85794	747.7999878
1450.382294	750.0
1450.906593	750.7999878
1451.430837	758.5999756
1451.955026	753.7999878
1452.47916	753.0
1453.003239	752.7999878
1453.527263	755.7999878
1454.051231	749.2000122
1454.575145	757.5999756
1455.099004	753.2000122
1455.622808	756.0
1456.146557	756.7999878
1456.670251	754.2000122
1457.19389	750.0
1457.717474	749.0
1458.241003	754.0
1458.764477	749.0
1459.287896	758.2000122
1459.81126	749.0
1460.334569	750.7999878
1460.857824	752.5999756
1461.381023	753.2000122
1461.904167	752.0
1462.427257	751.5999756
1462.950291	751.4000244
1463.473271	759.7999878
1463.996195	748.5999756
1464.519065	747.4000244
1465.041879	759.2000122
1465.564639	751.4000244
1466.087344	749.0
1466.609994	753.0
1467.132589	749.7999878
1467.655129	756.4000244
1468.177614	751.5999756
1468.700045	753.0
1469.22242	757.5999756
1469.744741	749.7999878
1470.267006	754.0
1470.789217	745.4000244
1471.311373	752.2000122
1471.833474	752.2000122
1472.35552	755.2000122
1472.877511	747.2000122
1473.399447	748.2000122
1473.921329	756.7999878
1474.443155	752.4000244
1474.964927	752.4000244
1475.486644	745.7999878
1476.008306	748.0
1476.529913	749.5999756
1477.051465	753.0
1477.572962	749.5999756
1478.094405	753.2000122
1478.615793	746.7999878
1479.137126	755.5999756
1479.658404	745.5999756
1480.179627	755.0
1480.700795	750.0
1481.221909	758.5999756
1481.742967	749.2000122
1482.263971	752.5999756
1482.78492	754.2000122
1483.305815	753.2000122
1483.826654	745.5999756
1484.347439	750.2000122
1484.868169	748.0
1485.388844	747.4000244
1485.909464	750.0
1486.43003	746.7999878
1486.95054	753.5999756
1487.470996	748.4000244
1487.991397	751.0
1488.511744	751.4000244
1489.032035	745.2000122
1489.552272	744.4000244
1490.072454	745.4000244
1490.592581	748.4000244
1491.112654	747.0
1491.632671	748.2000122
1492.152634	746.7999878
1492.672542	748.7999878
1493.192396	750.4000244
1493.712195	750.2000122
1494.231939	752.4000244
1494.751628	751.4000244
1495.271262	744.5999756
1495.790842	749.2000122
1496.310367	745.2000122
1496.829837	749.4000244
1497.349253	746.2000122
1497.868614	749.5999756
1498.38792	748.0
1498.907171	745.2000122
1499.426368	747.7999878
1499.94551	750.5999756
1500.464597	749.2000122
1500.98363	744.5999756
1501.502607	743.7999878
1502.021531	749.2000122
1502.540399	748.7999878
1503.059213	742.4000244
1503.577972	744.7999878
1504.096676	746.5999756
1504.615326	746.2000122
1505.133921	745.7999878
1505.652462	750.4000244
1506.170947	749.4000244
1506.689378	747.2000122
1507.207755	751.5999756
1507.726077	748.4000244
1508.244344	750.0
1508.762556	743.0
1509.280714	747.4000244
1509.798817	746.2000122
1510.316865	743.4000244
1510.834859	756.2000122
1511.352799	748.5999756
1511.870683	742.0
1512.388513	748.2000122
1512.906288	746.5999756
1513.424009	748.5999756
1513.941675	746.5999756
1514.459287	751.0
1514.976843	746.2000122
1515.494346	744.4000244
1516.011793	742.0
1516.529186	750.2000122
1517.046525	752.4000244
1517.563809	749.4000244
1518.081038	742.5999756
1518.598212	753.2000122
1519.115332	743.4000244
1519.632398	748.2000122
1520.149409	749.0
1520.666365	750.7999878
1521.183267	747.2000122
1521.700114	746.2000122
1522.216907	744.5999756
1522.733645	751.7999878
1523.250328	752.4000244
1523.766957	744.2000122
1524.283531	749.5999756
1524.800051	744.7999878
1525.316516	748.4000244
1525.832927	746.2000122
1526.349283	753.5999756
1526.865585	749.7999878
1527.381832	749.2000122
1527.898025	747.7999878
1528.414163	746.2000122
1528.930246	746.7999878
1529.446275	746.7999878
1529.96225	746.0
1530.47817	748.7999878
1530.994035	746.7999878
1531.509846	746.4000244
1532.025602	747.5999756
1532.541304	744.0
1533.056952	745.5999756
1533.572545	751.5999756
1534.088083	744.4000244
1534.603567	745.2000122
1535.118997	750.5999756
1535.634372	745.4000244
1536.149692	745.2000122
1536.664958	745.2000122
1537.18017	744.2000122
1537.695327	743.5999756
1538.210429	747.2000122
1538.725477	748.5999756
1539.240471	750.5999756
1539.75541	745.0
1540.270295	745.7999878
1540.785126	748.7999878
1541.299901	743.2000122
1541.814623	746.2000122
1542.32929	750.7999878
1542.843903	745.5999756
1543.358461	750.2000122
1543.872964	752.4000244
1544.387414	750.2000122
1544.901809	746.5999756
1545.416149	748.7999878
1545.930435	741.5999756
1546.444667	744.2000122
1546.958844	748.4000244
1547.472967	745.5999756
1547.987035	747.5999756
1548.501049	749.4000244
1549.015009	744.7999878
1549.528914	744.0
1550.042765	749.2000122
1550.556561	743.2000122
1551.070303	749.2000122
1551.583991	744.2000122
1552.097624	748.5999756
1552.611203	746.0
1553.124728	746.7999878
1553.638198	748.5999756
1554.151614	748.5999756
1554.664975	750.0
1555.178282	741.4000244
1555.691535	743.4000244
1556.204733	747.4000244
1556.717877	748.5999756
1557.230967	746.2000122
1557.744003	745.7999878
1558.256984	743.7999878
1558.76991	745.0
1559.282783	746.2000122
1559.795601	744.5999756
1560.308364	742.2000122
1560.821074	748.0
1561.333729	744.5999756
1561.84633	747.2000122
1562.358876	744.0
1562.871368	738.5999756
1563.383806	746.5999756
1563.89619	747.4000244
1564.408519	742.2000122
1564.920794	745.7999878
1565.433015	746.0
1565.945181	748.7999878
1566.457293	745.5999756
1566.969351	744.5999756
1567.481355	748.0
1567.993304	747.7999878
1568.505199	750.2000122
1569.01704	746.5999756
1569.528826	742.4000244
1570.040558	741.2000122
1570.552236	746.0
1571.06386	746.7999878
1571.575429	745.2000122
1572.086945	748.4000244
1572.598406	747.7999878
1573.109812	749.7999878
1573.621165	743.7999878
1574.132463	747.7999878
1574.643707	746.5999756
1575.154897	746.0
1575.666033	743.0
1576.177114	744.5999756
1576.688141	742.5999756
1577.199114	739.7999878
1577.710033	749.5999756
1578.220897	745.0
1578.731708	745.4000244
1579.242464	742.0
1579.753166	744.4000244
1580.263813	739.0
1580.774407	744.5999756
1581.284946	746.2000122
1581.795432	743.4000244
1582.305863	743.5999756
1582.816239	744.4000244
1583.326562	740.5999756
1583.836831	742.5999756
1584.347045	743.7999878
1584.857205	744.0
1585.367311	742.5999756
1585.877363	737.0
1586.387361	740.7999878
1586.897304	734.4000244
1587.407194	744.4000244
1587.917029	748.7999878
1588.42681	750.0
1588.936537	739.0
1589.44621	741.2000122
1589.955829	746.2000122
1590.465393	744.5999756
1590.974904	741.7999878
1591.48436	745.2000122
1591.993762	747.0
