1042.452273	954.7999878
1043.018714	955.0
1043.585098	952.5999756
1044.151424	955.4000244
1044.717692	953.4000244
1045.283903	954.5999756
1045.850056	950.5999756
1046.416151	956.4000244
1046.982188	953.4000244
1047.548167	942.7999878
1048.114089	948.2000122
1048.679953	949.0
1049.24576	938.2000122
1049.811509	940.4000244
1050.3772	954.2000122
1050.942833	948.2000122
1051.508408	942.0
1052.073926	947.5999756
1052.639387	946.2000122
1053.204789	943.7999878
1053.770134	945.4000244
1054.335421	938.4000244
1054.900651	942.5999756
1055.465823	944.2000122
1056.030937	939.5999756
1056.595993	940.7999878
1057.160992	939.2000122
1057.725934	944.7999878
1058.290817	940.4000244
1058.855643	947.7999878
1059.420411	932.2000122
1059.985122	936.2000122
1060.549775	936.4000244
1061.114371	943.2000122
1061.678908	941.2000122
1062.243389	948.4000244
1062.807811	939.7999878
1063.372176	933.4000244
1063.936483	938.5999756
1064.500733	941.5999756
1065.064925	932.0
1065.62906	937.4000244
1066.193137	938.5999756
1066.757156	944.0
1067.321118	947.0
1067.885022	948.4000244
1068.448869	931.4000244
1069.012658	928.5999756
1069.57639	939.4000244
1070.140063	940.7999878
1070.70368	937.4000244
1071.267239	933.2000122
1071.83074	937.7999878
1072.394184	939.2000122
1072.95757	937.0
1073.520899	931.5999756
1074.08417	938.5999756
1074.647383	934.5999756
1075.21054	940.4000244
1075.773638	939.4000244
1076.336679	942.7999878
1076.899663	947.2000122
1077.462589	930.7999878
1078.025457	932.0
1078.588268	930.5999756
1079.151022	926.4000244
1079.713718	929.5999756
1080.276356	929.7999878
1080.838937	936.0
1081.401461	929.5999756
1081.963927	933.4000244
1082.526336	933.4000244
1083.088687	933.2000122
1083.650981	926.5999756
1084.213217	925.2000122
1084.775396	928.0
1085.337517	930.5999756
1085.899581	921.4000244
1086.461587	923.4000244
1087.023536	926.7999878
1087.585428	930.5999756
1088.147262	926.2000122
1088.709039	928.4000244
1089.270758	928.2000122
1089.83242	923.4000244
1090.394024	920.7999878
1090.955571	924.0
1091.517061	929.2000122
1092.078493	924.5999756
1092.639868	927.7999878
1093.201185	930.2000122
1093.762445	930.7999878
1094.323648	933.0
1094.884793	924.5999756
1095.445881	925.2000122
1096.006911	927.5999756
1096.567884	922.5999756
1097.1288	923.0
1097.689659	920.4000244
1098.25046	921.0
1098.811203	922.2000122
1099.37189	915.7999878
1099.932518	926.4000244
1100.49309	920.4000244
1101.053604	923.0
1101.614061	918.7999878
1102.174461	926.5999756
1102.734803	919.0
1103.295088	923.4000244
1103.855316	917.5999756
1104.415486	923.2000122
1104.975599	912.4000244
1105.535655	914.2000122
1106.095653	925.4000244
1106.655594	927.7999878
1107.215478	915.2000122
1107.775305	917.7999878
1108.335074	912.2000122
1108.894786	917.4000244
1109.45444	909.5999756
1110.014038	922.5999756
1110.573578	919.4000244
1111.133061	918.4000244
1111.692486	918.5999756
1112.251854	913.4000244
1112.811165	908.4000244
1113.370419	921.0
1113.929616	914.5999756
1114.488755	913.5999756
1115.047837	908.5999756
1115.606862	918.2000122
1116.16583	907.2000122
1116.72474	917.2000122
1117.283593	920.2000122
1117.842389	908.4000244
1118.401128	914.2000122
1118.959809	918.0
1119.518433	908.7999878
1120.077	914.7999878
1120.63551	921.2000122
1121.193963	912.2000122
1121.752358	917.7999878
1122.310697	912.4000244
1122.868978	914.2000122
1123.427202	916.2000122
1123.985368	920.7999878
1124.543478	908.0
1125.10153	910.0
1125.659526	916.5999756
1126.217464	908.5999756
1126.775345	905.4000244
1127.333168	908.2000122
1127.890935	924.0
1128.448644	919.4000244
1129.006297	914.0
1129.563892	919.2000122
1130.12143	904.7999878
1130.678911	910.4000244
1131.236335	919.7999878
1131.793701	916.4000244
1132.351011	912.5999756
1132.908263	914.0
1133.465458	902.7999878
1134.022597	918.2000122
1134.579678	908.7999878
1135.136702	904.7999878
1135.693669	914.5999756
1136.250578	909.0
1136.807431	922.4000244
1137.364227	907.2000122
1137.920965	919.5999756
1138.477647	917.5999756
1139.034271	924.0
1139.590839	914.0
1140.147349	916.2000122
1140.703802	908.4000244
1141.260198	905.0
1141.816537	908.7999878
1142.37282	918.0
1142.929045	922.5999756
1143.485213	916.2000122
1144.041323	915.4000244
1144.597377	905.0
1145.153374	912.7999878
1145.709314	904.4000244
1146.265197	911.2000122
1146.821023	920.2000122
1147.376792	908.2000122
1147.932503	914.5999756
1148.488158	920.4000244
1149.043756	912.4000244
1149.599297	928.2000122
1150.154781	959.7999878
1150.710207	939.5999756
1151.265577	923.2000122
1151.82089	910.7999878
1152.376146	913.2000122
1152.931345	910.2000122
1153.486487	910.2000122
1154.041572	907.2000122
1154.5966	913.0
1155.151571	914.0
1155.706485	913.7999878
1156.261342	907.4000244
1156.816142	920.4000244
1157.370885	909.5999756
1157.925572	913.4000244
1158.480201	913.2000122
1159.034774	914.4000244
1159.589289	907.7999878
1160.143748	914.0
1160.698149	902.5999756
1161.252494	915.5999756
1161.806782	908.7999878
1162.361013	915.5999756
1162.915187	912.7999878
1163.469304	910.2000122
1164.023364	910.2000122
1164.577368	910.4000244
1165.131314	905.5999756
1165.685204	915.4000244
1166.239036	902.7999878
1166.792812	917.2000122
1167.346531	919.7999878
1167.900193	913.2000122
1168.453798	912.2000122
1169.007347	903.2000122
1169.560838	906.0
1170.114273	905.5999756
1170.66765	912.4000244
1171.220971	913.2000122
1171.774235	913.7999878
1172.327443	914.0
1172.880593	907.2000122
1173.433687	903.4000244
1173.986723	899.4000244
1174.539703	906.4000244
1175.092626	912.5999756
1175.645493	900.0
1176.198302	903.7999878
1176.751055	913.0
1177.303751	902.7999878
1177.85639	897.7999878
1178.408972	914.2000122
1178.961498	905.4000244
1179.513966	905.4000244
1180.066378	895.7999878
1180.618733	900.4000244
1181.171032	904.5999756
1181.723273	898.0
1182.275458	900.2000122
1182.827586	907.0
1183.379657	904.5999756
1183.931672	915.0
1184.48363	910.2000122
1185.035531	902.5999756
1185.587375	911.5999756
1186.139162	908.5999756
1186.690893	906.7999878
1187.242567	907.0
1187.794184	898.4000244
1188.345745	897.2000122
1188.897249	905.2000122
1189.448696	910.7999878
1190.000086	903.2000122
1190.55142	902.0
1191.102697	910.2000122
1191.653918	909.7999878
1192.205081	904.2000122
1192.756188	893.4000244
1193.858232	892.0
1194.409169	898.4000244
1194.960049	899.0
1195.510872	904.7999878
1196.061639	906.0
1196.612349	906.7999878
1197.163003	896.7999878
1197.713599	897.7999878
1198.264139	902.4000244
1198.814623	905.2000122
1199.36505	905.2000122
1199.91542	904.2000122
1200.465734	898.7999878
1201.01599	898.7999878
1201.566191	906.7999878
1202.116334	897.2000122
1202.666421	887.7999878
1203.216452	901.2000122
1203.766425	895.4000244
1204.316343	904.5999756
1204.866203	910.2000122
1205.416007	895.2000122
1205.965754	898.2000122
1206.515445	904.5999756
1207.065079	908.2000122
1207.614657	891.2000122
1208.164177	902.5999756
1208.713642	895.2000122
1209.26305	900.4000244
1209.812401	901.4000244
1210.361695	892.2000122
1210.910933	903.4000244
1211.460115	900.0
1212.00924	898.4000244
1212.558308	895.5999756
1213.10732	897.7999878
1213.656275	903.5999756
1214.205174	900.7999878
1214.754016	906.0
1215.302801	891.0
1215.85153	897.7999878
1216.400203	903.4000244
1216.948819	895.4000244
1217.497378	892.0
1218.045881	900.4000244
1218.594327	889.2000122
1219.142717	898.2000122
1219.691051	895.7999878
1220.239327	890.5999756
1220.787548	901.7999878
1221.335712	898.5999756
1221.883819	887.0
1222.43187	892.5999756
1222.979864	898.2000122
1223.527802	899.4000244
1224.075683	901.2000122
1224.623508	900.5999756
1225.171277	901.2000122
1225.718989	902.4000244
1226.266644	895.4000244
1226.814243	887.2000122
1227.361786	892.5999756
1227.909272	898.4000244
1228.456702	889.0
1229.004075	893.5999756
1229.551392	890.7999878
1230.098652	895.7999878
1230.645856	891.5999756
1231.193003	896.7999878
1231.740094	897.0
1232.287129	886.5999756
1232.834107	892.2000122
1233.381029	903.7999878
1233.927894	904.5999756
1234.474703	893.0
1235.021455	890.5999756
1235.568151	890.0
1236.114791	902.0
1236.661374	891.2000122
1237.207901	897.5999756
1237.754372	897.0
1238.300786	901.0
1238.847144	893.7999878
1239.393445	894.0
1239.93969	891.4000244
1240.485879	898.2000122
1241.032011	891.7999878
1241.578087	884.5999756
1242.124106	890.2000122
1242.67007	885.0
1243.215976	895.5999756
1243.761827	889.7999878
1244.307621	891.5999756
1244.853359	897.5999756
1245.39904	884.2000122
1245.944665	887.7999878
1246.490234	894.2000122
1247.035746	896.4000244
1247.581203	891.7999878
1248.126602	895.4000244
1248.671946	892.7999878
1249.217233	883.0
1249.762464	882.2000122
1250.307638	893.0
1250.852757	898.2000122
1251.397819	900.5999756
1251.942824	895.7999878
1252.487774	883.4000244
1253.032667	884.4000244
1253.577503	892.2000122
1254.122284	893.7999878
1254.667008	882.2000122
1255.211676	885.7999878
1255.756288	893.0
1256.300843	887.2000122
1256.845342	892.4000244
1257.389785	895.5999756
1257.934172	893.2000122
1258.478502	887.4000244
1259.022776	890.0
1259.566994	893.7999878
1260.111156	894.5999756
1260.655261	886.2000122
1261.199311	895.0
1261.743304	885.7999878
1262.28724	890.2000122
1262.831121	891.5999756
1263.374945	882.7999878
1263.918713	898.4000244
1264.462425	897.7999878
1265.006081	892.5999756
1265.54968	893.0
1266.093223	889.4000244
1266.636711	896.0
1267.180141	889.7999878
1267.723516	892.7999878
1268.266835	891.0
1268.810097	890.7999878
1269.353303	887.2000122
1269.896453	885.5999756
1270.439547	888.2000122
1270.982584	887.0
1271.525566	881.5999756
1272.068491	888.4000244
1272.61136	893.2000122
1273.154173	888.4000244
1273.69693	886.2000122
1274.239631	890.2000122
1274.782275	884.7999878
1275.324864	895.4000244
1275.867396	891.7999878
1276.409872	885.5999756
1276.952292	894.5999756
1277.494656	881.0
1278.036964	889.2000122
1278.579215	879.5999756
1279.121411	886.2000122
1279.66355	884.2000122
1280.205634	896.2000122
1280.747661	889.2000122
1281.289632	892.4000244
1281.831547	892.0
1282.373406	884.5999756
1282.915209	894.5999756
1283.456955	903.2000122
1283.998646	940.2000122
1284.540281	994.7999878
1285.081859	1027.0
1285.623381	949.5999756
1286.164848	910.2000122
1286.706258	888.4000244
1287.247612	891.4000244
1287.788911	886.5999756
1288.330153	891.2000122
1288.871339	891.4000244
1289.412469	890.4000244
1289.953543	886.2000122
1290.494561	884.4000244
1291.035523	884.5999756
1291.576428	886.5999756
1292.117278	883.5999756
1292.658072	881.4000244
1293.19881	888.0
1293.739492	885.5999756
1294.280118	887.7999878
1294.820687	886.4000244
1295.361201	882.0
1295.901659	882.5999756
1296.442061	885.7999878
1296.982406	900.5999756
1297.522696	881.4000244
1298.06293	891.4000244
1298.603108	889.5999756
1299.143229	879.5999756
1299.683295	879.2000122
1300.223305	875.2000122
1300.763259	885.0
1301.303157	879.0
1301.842999	891.0
1302.382785	881.0
1302.922515	881.4000244
1303.462189	880.2000122
1304.001807	878.7999878
1304.541369	880.0
1305.080875	885.5999756
1305.620326	886.5999756
1306.15972	871.7999878
1306.699058	886.0
1307.238341	884.5999756
1307.777567	885.4000244
1308.316738	879.7999878
1308.855853	891.0
1309.394912	874.5999756
1309.933915	881.0
1310.472862	878.4000244
1311.011753	878.2000122
1311.550588	884.7999878
1312.089367	881.4000244
1312.62809	881.5999756
1313.166758	878.7999878
1313.70537	888.7999878
1314.243925	878.0
1314.782425	877.4000244
1315.320869	878.2000122
1315.859257	881.0
1316.397589	875.0
1316.935866	881.2000122
1317.474086	878.2000122
1318.012251	885.0
1318.55036	878.0
1319.088413	878.2000122
1319.62641	875.7999878
1320.164351	875.2000122
1320.702236	875.5999756
1321.240066	878.4000244
1321.777839	877.0
1322.315557	877.5999756
1322.853219	881.5999756
1323.390826	872.2000122
1323.928376	881.2000122
1324.465871	874.2000122
1325.003309	873.2000122
1325.540692	886.2000122
1326.07802	872.7999878
1326.615291	877.0
1327.152506	885.5999756
1327.689666	877.0
1328.22677	877.4000244
1328.763818	885.2000122
1329.300811	876.0
1329.837747	873.7999878
1330.374628	879.7999878
1330.911453	877.5999756
1331.448222	879.2000122
1331.984936	877.7999878
1332.521594	880.0
1333.058196	883.5999756
1333.594742	869.2000122
1334.131232	877.0
1334.667667	881.2000122
1335.204046	881.0
1335.740369	872.0
1336.276637	873.0
1336.812848	874.7999878
1337.349004	878.4000244
1337.885105	869.4000244
1338.421149	879.4000244
1338.957138	870.5999756
1339.493071	876.2000122
1340.028949	883.5999756
1340.56477	871.0
1341.100536	873.2000122
1341.636246	873.2000122
1342.171901	865.7999878
1342.7075	873.5999756
1343.243043	875.4000244
1343.77853	878.2000122
1344.313962	883.0
1344.849338	879.2000122
1345.384659	877.5999756
1345.919923	882.5999756
1346.455133	881.0
1346.990286	871.7999878
1347.525384	875.7999878
1348.060426	884.2000122
1348.595412	870.5999756
1349.130343	873.4000244
1349.665218	879.5999756
1350.200037	873.2000122
1350.734801	877.5999756
1351.269509	865.4000244
1351.804162	874.0
1352.338758	870.7999878
1352.8733	881.4000244
1353.407785	875.2000122
1353.942215	865.7999878
1354.476589	872.4000244
1355.010908	883.2000122
1355.545171	880.4000244
1356.079379	870.4000244
1356.61353	872.0
1357.147627	861.4000244
1357.681667	875.5999756
1358.215652	870.2000122
1358.749582	873.7999878
1359.283456	877.0
1359.817274	879.2000122
1360.351037	874.0
1360.884744	869.2000122
1361.418395	869.0
1361.951991	868.5999756
1362.485531	872.7999878
1363.019016	874.5999756
1363.552445	872.5999756
1364.085819	874.2000122
1364.619137	871.7999878
1365.1524	869.5999756
1365.685607	866.0
1366.218758	877.2000122
1366.751854	874.5999756
1367.284894	874.5999756
1367.817879	869.4000244
1368.350808	880.0
1368.883682	866.2000122
1369.4165	873.2000122
1369.949263	872.5999756
1370.48197	868.4000244
1371.014622	863.4000244
1371.547218	872.4000244
1372.079758	870.4000244
1372.612244	869.7999878
1373.144673	863.7999878
1373.677047	866.2000122
1374.209366	876.2000122
1374.741629	868.0
1375.273836	876.7999878
1375.805989	870.5999756
1376.338085	862.5999756
1376.870126	878.0
1377.402112	871.0
1377.934042	875.0
1378.465917	874.0
1378.997736	870.0
1379.5295	865.4000244
1380.061208	872.4000244
1380.592861	868.2000122
1381.124459	872.7999878
1381.656	872.7999878
1382.187487	871.4000244
1382.718918	873.0
1383.250294	871.4000244
1383.781614	859.7999878
1384.312879	873.2000122
1384.844088	867.2000122
1385.375242	877.5999756
1385.90634	868.7999878
1386.437383	882.5999756
1386.968371	898.0
1387.499303	933.4000244
1388.03018	1088.800049
1388.561001	1103.800049
1389.091767	944.4000244
1389.622478	891.0
1390.153133	874.7999878
1390.683733	877.2000122
1391.214277	869.7999878
1391.744766	862.5999756
1392.2752	873.2000122
1392.805578	866.4000244
1393.335901	873.5999756
1393.866168	870.5999756
1394.396381	873.0
1394.926537	866.7999878
1395.456639	874.0
1395.986685	870.4000244
1396.516675	861.2000122
1397.046611	870.4000244
1397.576491	871.2000122
1398.106315	870.2000122
1398.636084	868.2000122
1399.165798	860.4000244
1399.695457	867.4000244
1400.22506	868.2000122
1400.754608	865.2000122
1401.284101	870.2000122
1401.813538	864.2000122
1402.34292	872.0
1402.872247	870.5999756
1403.401518	866.0
1403.930734	867.5999756
1404.459895	869.7999878
1404.989	860.5999756
1405.51805	868.7999878
1406.047045	863.2000122
1406.575984	875.4000244
1407.104869	864.0
1407.633697	870.7999878
1408.162471	870.7999878
1408.691189	873.5999756
1409.219852	876.7999878
1409.74846	882.0
1410.277013	883.0
1410.80551	883.4000244
1411.333952	871.2000122
1411.862339	871.4000244
1412.39067	861.0
1412.918946	859.0
1413.447167	871.5999756
1413.975333	866.7999878
1414.503444	867.0
1415.031499	860.0
1415.559499	872.5999756
1416.087444	858.0
1416.615333	864.5999756
1417.143167	866.5999756
1417.670947	862.2000122
1418.19867	863.5999756
1418.726339	867.5999756
1419.253952	868.4000244
1419.781511	858.7999878
1420.309014	864.0
1420.836461	864.7999878
1421.363854	869.7999878
1421.891191	867.5999756
1422.418474	861.2000122
1422.945701	863.2000122
1423.472872	864.5999756
1423.999989	867.0
1424.52705	870.4000244
1425.054057	861.0
1425.581008	863.0
1426.107904	869.2000122
1426.634745	868.2000122
1427.16153	870.2000122
1427.688261	864.2000122
1428.214936	862.4000244
1428.741556	868.0
1429.268121	865.0
1429.794631	862.7999878
1430.321085	866.0
1430.847485	852.5999756
1431.373829	867.4000244
1431.900118	875.0
1432.426353	857.4000244
1432.952532	860.0
1433.478655	860.0
1434.004724	861.4000244
1434.530738	856.2000122
1435.056696	863.0
1435.5826	858.4000244
1436.108448	871.7999878
1436.634241	862.0
1437.159979	860.5999756
1437.685662	864.5999756
1438.21129	866.2000122
1438.736863	867.0
1439.262381	854.5999756
1439.787843	865.2000122
1440.313251	851.7999878
1440.838603	866.7999878
1441.3639	855.4000244
1441.889143	863.7999878
1442.41433	864.4000244
1442.939462	863.0
1443.464539	862.7999878
1443.989561	862.2000122
1444.514528	861.4000244
1445.03944	860.4000244
1445.564297	862.0
1446.089099	863.7999878
1446.613846	867.4000244
1447.138537	861.0
1447.663174	857.4000244
1448.187756	849.0
1448.712282	862.0
1449.236754	859.2000122
1449.761171	857.7999878
1450.285532	855.2000122
1450.809839	861.2000122
1451.33409	862.5999756
1451.858287	854.7999878
1452.382428	865.2000122
1452.906515	855.7999878
1453.430546	860.4000244
1453.954523	847.4000244
1454.478444	862.0
1455.002311	861.7999878
1455.526123	859.5999756
1456.049879	858.2000122
1456.573581	860.2000122
1457.097227	864.2000122
1457.620819	858.0
1458.144356	854.7999878
1458.667837	863.5999756
1459.191264	854.5999756
1459.714636	858.5999756
1460.237952	858.4000244
1460.761214	854.4000244
1461.284421	857.4000244
1461.807573	861.7999878
1462.33067	859.4000244
1462.853712	861.0
1463.376699	860.7999878
1463.899632	859.5999756
1464.422509	859.0
1464.945331	859.0
1465.468099	847.5999756
1465.990811	857.5999756
1466.513469	855.7999878
1467.036071	862.5999756
1467.558619	857.7999878
1468.081112	866.2000122
1468.60355	856.2000122
1469.125933	855.2000122
1469.648261	861.2000122
1470.170534	860.7999878
1470.692752	855.0
1471.214916	862.2000122
1471.737024	856.2000122
1472.259078	847.2000122
1472.781077	852.4000244
1473.303021	856.0
1473.82491	857.0
1474.346744	862.4000244
1474.868523	855.4000244
1475.390248	859.4000244
1475.911917	860.2000122
1476.433532	856.5999756
1476.955092	854.4000244
1477.476597	845.7999878
1477.998047	859.7999878
1478.519442	865.7999878
1479.040783	855.4000244
1479.562068	861.7999878
1480.083299	865.4000244
1480.604475	859.0
1481.125596	852.5999756
1481.646663	851.0
1482.167674	855.5999756
1482.688631	850.0
1483.209533	861.2000122
1483.73038	860.2000122
1484.251172	854.5999756
1484.771909	853.0
1485.292592	849.4000244
1485.81322	860.4000244
1486.333793	856.2000122
1486.854311	855.4000244
1487.374775	856.7999878
1487.895183	847.5999756
1488.415537	850.7999878
1488.935836	857.7999878
1489.456081	850.2000122
1489.97627	861.7999878
1490.496405	856.0
1491.016485	859.0
1491.536511	853.0
1492.056481	848.2000122
1492.576397	858.0
1493.096258	845.5999756
1493.616064	850.2000122
1494.135816	860.4000244
1494.655513	857.2000122
1495.175155	854.2000122
1495.694742	848.0
1496.214274	855.2000122
1496.733752	849.4000244
1497.253175	851.2000122
1497.772544	848.2000122
1498.291858	849.7999878
1498.811116	851.5999756
1499.330321	853.0
1499.84947	863.2000122
1500.368565	851.7999878
1500.887605	849.0
1501.406591	854.0
1501.925521	853.0
1502.444397	852.7999878
1502.963219	846.2000122
1503.481985	857.0
1504.000697	845.0
1504.519355	849.4000244
1505.037957	845.4000244
1505.556505	843.5999756
1506.074999	856.5999756
1506.593437	851.5999756
1507.111821	850.4000244
1507.63015	859.5999756
1508.148425	849.4000244
1508.666645	852.5999756
1509.18481	854.0
1509.702921	847.2000122
1510.220977	846.7999878
1510.738979	857.4000244
1511.256925	857.4000244
1511.774817	851.2000122
1512.292655	847.5999756
1512.810438	851.4000244
1513.328166	855.0
1513.84584	850.4000244
1514.363459	855.7999878
1514.881023	852.7999878
1515.398533	847.4000244
1515.915988	844.5999756
1516.433389	847.5999756
1516.950734	854.0
1517.468026	847.7999878
1517.985263	844.5999756
1518.502445	849.4000244
1519.019572	858.2000122
1519.536645	851.5999756
1520.053664	855.5999756
1520.570628	849.0
1521.087537	853.7999878
1521.604392	856.4000244
1522.121192	839.7999878
1522.637937	853.2000122
1523.154628	850.5999756
1523.671265	854.7999878
1524.187847	853.0
1524.704374	856.7999878
1525.220847	854.0
1525.737265	854.0
1526.253629	848.0
1526.769938	848.0
1527.286192	851.0
1527.802392	848.4000244
1528.318538	848.4000244
1528.834629	855.0
1529.350666	851.0
1529.866648	860.4000244
1530.382575	851.7999878
1530.898448	854.2000122
1531.414266	851.5999756
1531.93003	849.7999878
1532.44574	849.5999756
1532.961395	848.7999878
1533.476995	849.4000244
1533.992541	852.4000244
1534.508033	848.7999878
1535.02347	851.4000244
1535.538852	855.4000244
1536.05418	845.7999878
1536.569454	857.0
1537.084673	843.2000122
1537.599837	842.2000122
1538.114947	846.7999878
1538.630003	854.7999878
1539.145004	844.4000244
1539.659951	852.4000244
1540.174843	849.0
1540.689681	846.7999878
1541.204465	847.7999878
1541.719194	856.5999756
1542.233868	846.5999756
1542.748488	845.7999878
1543.263054	850.2000122
1543.777565	850.2000122
1544.292022	842.7999878
1544.806424	845.2000122
1545.320772	849.4000244
1545.835066	843.7999878
1546.349305	845.0
1546.863489	846.5999756
1547.37762	855.4000244
1547.891696	854.2000122
1548.405717	849.0
1548.919684	847.2000122
1549.433597	850.4000244
1549.947455	852.2000122
1550.461259	851.7999878
1550.975009	854.4000244
1551.488704	855.5999756
1552.002345	848.5999756
1552.515931	847.4000244
1553.029463	853.5999756
1553.542941	848.5999756
1554.056364	853.0
1554.569733	839.5999756
1555.083048	851.0
1555.596308	840.2000122
1556.109514	849.5999756
1556.622665	844.5999756
1557.135762	856.2000122
1557.648805	850.7999878
1558.161794	850.4000244
1558.674728	852.4000244
1559.187608	850.5999756
1559.700433	848.0
1560.213205	845.7999878
1560.725921	847.7999878
1561.238584	852.2000122
1561.751192	853.4000244
1562.263746	844.7999878
1562.776246	849.0
1563.288691	841.5999756
1563.801082	852.4000244
1564.313419	846.0
1564.825701	850.0
1565.337929	852.5999756
1565.850103	852.5999756
1566.362223	846.7999878
1566.874288	849.0
1567.386299	849.0
1567.898256	855.7999878
1568.410158	858.4000244
1568.922007	851.5999756
1569.4338	847.4000244
1569.94554	855.0
1570.457226	843.5999756
1570.968857	847.2000122
1571.480434	853.2000122
1571.991956	847.5999756
1572.503425	852.0
1573.014839	844.7999878
1573.526199	850.4000244
1574.037505	846.0
1574.548756	851.2000122
1575.059953	845.2000122
1575.571096	848.0
1576.082185	845.2000122
1576.59322	850.5999756
1577.1042	849.0
1577.615126	854.0
1578.125998	847.5999756
1578.636816	846.5999756
1579.14758	852.4000244
1579.658289	850.5999756
1580.168944	852.2000122
1580.679545	854.2000122
1581.190092	853.5999756
1581.700585	854.7999878
1582.211023	852.7999878
1582.721407	852.4000244
1583.231737	848.0
1583.742013	856.0
1584.252235	846.4000244
1584.762403	847.0
1585.272516	849.5999756
1585.782575	848.4000244
1586.292581	850.0
1586.802532	846.2000122
1587.312428	843.0
1587.822271	838.4000244
1588.33206	848.5999756
1588.841794	845.5999756
1589.351474	849.7999878
1589.8611	843.4000244
1590.370672	848.5999756
1590.88019	840.2000122
1591.389654	850.0
1591.899064	844.0
1592.408419	846.7999878
