1042.452273	748.5999756
1043.018714	745.2000122
1043.585098	743.7999878
1044.151424	746.2000122
1044.717692	748.4000244
1045.283903	743.4000244
1045.850056	749.2000122
1046.416151	743.0
1046.982188	750.5999756
1047.548167	747.0
1048.114089	743.7999878
1048.679953	744.5999756
1049.24576	739.7999878
1049.811509	744.2000122
1050.3772	743.2000122
1050.942833	742.2000122
1051.508408	747.5999756
1052.073926	742.4000244
1052.639387	743.2000122
1053.204789	745.2000122
1053.770134	743.2000122
1054.335421	740.4000244
1054.900651	743.0
1055.465823	735.5999756
1056.030937	742.4000244
1056.595993	741.0
1057.160992	736.4000244
1057.725934	741.5999756
1058.290817	737.5999756
1058.855643	741.5999756
1059.420411	739.4000244
1059.985122	736.7999878
1060.549775	738.4000244
1061.114371	734.4000244
1061.678908	738.2000122
1062.243389	738.4000244
1062.807811	739.5999756
1063.372176	736.2000122
1063.936483	740.5999756
1064.500733	736.4000244
1065.064925	739.7999878
1065.62906	736.7999878
1066.193137	742.2000122
1066.757156	734.7999878
1067.321118	742.5999756
1067.885022	742.7999878
1068.448869	741.4000244
1069.012658	736.4000244
1069.57639	736.5999756
1070.140063	743.5999756
1070.70368	738.5999756
1071.267239	736.4000244
1071.83074	737.2000122
1072.394184	740.4000244
1072.95757	740.4000244
1073.520899	732.4000244
1074.08417	739.5999756
1074.647383	739.2000122
1075.21054	740.4000244
1075.773638	730.5999756
1076.336679	734.2000122
1076.899663	739.2000122
1077.462589	735.4000244
1078.025457	740.4000244
1078.588268	734.0
1079.151022	738.7999878
1079.713718	736.4000244
1080.276356	741.0
1080.838937	733.5999756
1081.401461	741.4000244
1081.963927	737.7999878
1082.526336	740.7999878
1083.088687	735.2000122
1083.650981	737.5999756
1084.213217	737.2000122
1084.775396	736.4000244
1085.337517	735.7999878
1087.023536	737.5999756
1087.585428	732.7999878
1088.147262	733.0
1088.709039	736.2000122
1089.270758	733.5999756
1089.83242	736.4000244
1090.394024	732.7999878
1090.955571	740.2000122
1091.517061	734.4000244
1092.078493	741.4000244
1092.639868	738.0
1093.201185	733.5999756
1093.762445	730.5999756
1094.323648	732.7999878
1094.884793	735.7999878
1095.445881	735.0
1096.006911	736.2000122
1096.567884	734.0
1097.1288	740.2000122
1097.689659	732.4000244
1098.25046	735.7999878
1098.811203	738.4000244
1099.37189	735.0
1099.932518	735.7999878
1100.49309	730.7999878
1101.053604	734.5999756
1101.614061	732.0
1102.174461	736.2000122
1102.734803	726.7999878
1103.295088	741.0
1103.855316	736.0
1104.415486	739.0
1104.975599	734.0
1105.535655	732.2000122
1106.095653	732.2000122
1106.655594	733.0
1107.215478	736.5999756
1107.775305	733.7999878
1108.335074	736.5999756
1108.894786	735.4000244
1109.45444	734.2000122
1110.014038	736.4000244
1110.573578	735.2000122
1111.133061	736.2000122
1111.692486	735.0
1112.251854	735.7999878
1112.811165	729.0
1113.370419	736.5999756
1113.929616	736.7999878
1114.488755	729.4000244
1115.047837	731.0
1115.606862	734.0
1116.16583	730.7999878
1116.72474	734.4000244
1117.283593	737.5999756
1117.842389	732.2000122
1118.401128	736.2000122
1118.959809	737.2000122
1119.518433	732.5999756
1120.077	732.5999756
1120.63551	734.4000244
1121.193963	732.2000122
1121.752358	732.7999878
1122.310697	738.0
1122.868978	733.2000122
1123.427202	733.4000244
1123.985368	731.5999756
1124.543478	735.2000122
1125.10153	735.0
1125.659526	734.4000244
1126.217464	735.0
1126.775345	735.4000244
1127.333168	735.5999756
1127.890935	732.5999756
1128.448644	736.2000122
1129.006297	729.4000244
1129.563892	738.7999878
1130.12143	732.2000122
1130.678911	732.4000244
1131.236335	734.2000122
1131.793701	731.7999878
1132.351011	734.2000122
1132.908263	730.4000244
1133.465458	740.7999878
1134.022597	732.5999756
1134.579678	732.4000244
1135.136702	732.5999756
1135.693669	736.0
1136.250578	733.5999756
1136.807431	735.7999878
1137.364227	734.4000244
1137.920965	733.2000122
1138.477647	733.4000244
1139.034271	737.2000122
1139.590839	736.0
1140.147349	734.0
1140.703802	733.2000122
1141.260198	731.2000122
1141.816537	740.7999878
1142.37282	737.7999878
1142.929045	735.4000244
1143.485213	739.7999878
1144.041323	741.4000244
1144.597377	730.4000244
1145.153374	737.0
1145.709314	735.7999878
1146.265197	732.5999756
1146.821023	738.7999878
1147.376792	742.0
1147.932503	739.7999878
1148.488158	739.0
1149.043756	742.7999878
1149.599297	747.4000244
1150.154781	768.7999878
1150.710207	786.2000122
1151.265577	760.7999878
1151.82089	742.4000244
1152.376146	742.2000122
1152.931345	734.0
1153.486487	742.0
1154.041572	737.0
1154.5966	734.4000244
1155.151571	739.5999756
1155.706485	733.5999756
1156.261342	734.4000244
1156.816142	734.2000122
1157.370885	733.0
1157.925572	734.7999878
1158.480201	732.4000244
1159.034774	732.2000122
1159.589289	735.0
1160.143748	738.0
1160.698149	734.7999878
1161.252494	732.5999756
1161.806782	733.2000122
1162.361013	731.2000122
1162.915187	735.4000244
1163.469304	731.0
1164.023364	734.2000122
1164.577368	729.2000122
1165.131314	735.4000244
1165.685204	739.0
1166.239036	741.5999756
1166.792812	735.5999756
1167.346531	734.2000122
1167.900193	737.0
1168.453798	733.4000244
1169.007347	736.5999756
1169.560838	732.7999878
1170.114273	735.2000122
1170.66765	732.5999756
1171.220971	735.2000122
1171.774235	733.5999756
1172.327443	732.5999756
1172.880593	733.4000244
1173.433687	731.0
1173.986723	732.5999756
1174.539703	736.5999756
1175.092626	729.4000244
1175.645493	730.4000244
1176.198302	734.4000244
1176.751055	735.0
1177.303751	734.0
1177.85639	734.4000244
1178.408972	734.2000122
1178.961498	727.5999756
1179.513966	728.7999878
1180.066378	735.5999756
1180.618733	735.4000244
1181.171032	731.4000244
1181.723273	733.0
1182.275458	730.0
1182.827586	732.2000122
1183.379657	733.4000244
1183.931672	736.0
1184.48363	738.0
1185.035531	732.5999756
1185.587375	731.5999756
1186.139162	735.2000122
1186.690893	735.4000244
1187.242567	732.7999878
1187.794184	732.5999756
1188.345745	735.2000122
1188.897249	731.5999756
1189.448696	731.4000244
1190.000086	728.0
1190.55142	733.4000244
1191.102697	731.2000122
1191.653918	734.4000244
1192.205081	727.7999878
1192.756188	734.2000122
1193.307238	747.0
1193.858232	732.0
1194.409169	733.0
1194.960049	729.5999756
1195.510872	739.7999878
1196.061639	735.7999878
1196.612349	733.2000122
1197.163003	730.7999878
1197.713599	729.2000122
1198.264139	732.5999756
1198.814623	731.5999756
1199.36505	736.2000122
1199.91542	735.7999878
1200.465734	736.5999756
1201.01599	733.5999756
1201.566191	732.2000122
1202.116334	735.2000122
1202.666421	730.7999878
1203.216452	733.2000122
1203.766425	729.0
1204.316343	727.0
1204.866203	735.2000122
1205.416007	727.7999878
1205.965754	728.7999878
1206.515445	733.4000244
1207.065079	728.0
1207.614657	730.0
1208.164177	731.7999878
1208.713642	733.4000244
1209.26305	731.5999756
1209.812401	731.0
1210.361695	732.2000122
1210.910933	732.2000122
1211.460115	726.2000122
1212.00924	736.2000122
1212.558308	735.4000244
1213.10732	733.4000244
1213.656275	730.2000122
1214.205174	731.4000244
1214.754016	735.7999878
1215.302801	733.4000244
1215.85153	728.5999756
1216.400203	736.2000122
1216.948819	732.0
1217.497378	733.0
1218.045881	731.2000122
1218.594327	727.4000244
1219.142717	728.7999878
1219.691051	731.2000122
1220.239327	724.5999756
1220.787548	730.7999878
1221.335712	731.7999878
1221.883819	730.4000244
1222.43187	730.5999756
1222.979864	732.7999878
1223.527802	734.2000122
1224.075683	727.7999878
1224.623508	734.0
1225.171277	726.4000244
1225.718989	731.0
1226.266644	731.0
1226.814243	730.5999756
1227.361786	733.5999756
1227.909272	727.4000244
1228.456702	734.4000244
1229.004075	730.0
1229.551392	727.7999878
1230.098652	728.0
1230.645856	727.5999756
1231.193003	729.0
1231.740094	731.0
1232.287129	732.2000122
1232.834107	729.7999878
1233.381029	732.5999756
1233.927894	733.5999756
1234.474703	732.7999878
1235.021455	725.5999756
1235.568151	730.0
1236.114791	731.5999756
1236.661374	731.5999756
1237.207901	732.4000244
1237.754372	730.7999878
1238.300786	735.5999756
1238.847144	734.7999878
1239.393445	726.2000122
1239.93969	730.7999878
1240.485879	730.2000122
1241.032011	731.5999756
1241.578087	730.5999756
1242.124106	728.5999756
1242.67007	728.2000122
1243.215976	732.4000244
1243.761827	732.2000122
1244.307621	731.5999756
1244.853359	731.2000122
1245.39904	735.4000244
1245.944665	732.5999756
1246.490234	731.7999878
1247.035746	729.2000122
1247.581203	727.0
1248.126602	725.5999756
1248.671946	732.2000122
1249.217233	731.7999878
1249.762464	734.4000244
1250.307638	730.7999878
1250.852757	735.2000122
1251.397819	729.4000244
1251.942824	730.4000244
1252.487774	736.0
1253.032667	732.0
1253.577503	731.2000122
1254.122284	728.5999756
1254.667008	730.4000244
1255.211676	732.0
1255.756288	729.2000122
1256.300843	729.7999878
1256.845342	731.5999756
1257.389785	732.7999878
1257.934172	729.5999756
1258.478502	725.5999756
1259.022776	732.5999756
1259.566994	735.7999878
1260.111156	742.0
1260.655261	732.7999878
1261.199311	735.4000244
1261.743304	731.5999756
1262.28724	734.4000244
1262.831121	730.7999878
1263.374945	735.2000122
1263.918713	745.0
1264.462425	753.5999756
1265.006081	771.4000244
1265.54968	766.5999756
1266.093223	747.2000122
1266.636711	736.0
1267.180141	730.2000122
1267.723516	731.4000244
1268.266835	736.2000122
1268.810097	731.2000122
1269.353303	732.2000122
1269.896453	728.2000122
1270.439547	726.7999878
1270.982584	731.4000244
1271.525566	734.7999878
1272.068491	730.5999756
1272.61136	731.4000244
1273.154173	731.7999878
1273.69693	728.7999878
1274.239631	732.0
1274.782275	734.5999756
1275.324864	730.0
1275.867396	733.4000244
1276.409872	729.7999878
1276.952292	731.2000122
1277.494656	727.7999878
1278.036964	727.4000244
1278.579215	733.7999878
1279.121411	728.0
1279.66355	735.5999756
1280.205634	730.7999878
1280.747661	735.2000122
1281.289632	741.0
1281.831547	734.5999756
1282.373406	737.2000122
1282.915209	741.0
1283.456955	745.7999878
1283.998646	763.5999756
1284.540281	838.0
1285.081859	1154.800049
1285.623381	1310.599976
1286.164848	911.4000244
1286.706258	770.4000244
1287.247612	749.2000122
1287.788911	737.5999756
1288.330153	738.0
1288.871339	731.0
1289.412469	737.0
1289.953543	736.4000244
1290.494561	736.4000244
1291.035523	729.0
1291.576428	733.5999756
1292.117278	728.7999878
1292.658072	730.0
1293.19881	731.2000122
1293.739492	728.4000244
1294.280118	729.7999878
1294.820687	730.7999878
1295.361201	732.4000244
1295.901659	732.0
1296.442061	737.4000244
1296.982406	725.4000244
1297.522696	729.7999878
1298.06293	728.7999878
1298.603108	734.0
1299.143229	729.0
1299.683295	731.2000122
1300.223305	733.7999878
1300.763259	729.4000244
1301.303157	728.5999756
1301.842999	730.4000244
1302.382785	727.4000244
1302.922515	730.5999756
1303.462189	728.4000244
1304.001807	727.7999878
1304.541369	730.0
1305.080875	732.0
1305.620326	727.5999756
1306.15972	728.5999756
1306.699058	726.7999878
1307.238341	729.2000122
1307.777567	729.5999756
1308.316738	733.0
1308.855853	730.7999878
1309.394912	728.4000244
1309.933915	731.0
1310.472862	723.7999878
1311.011753	729.5999756
1311.550588	730.7999878
1312.089367	731.0
1312.62809	730.4000244
1313.166758	725.4000244
1313.70537	730.5999756
1314.243925	730.4000244
1314.782425	724.7999878
1315.320869	735.0
1315.859257	729.2000122
1316.397589	725.4000244
1316.935866	733.4000244
1317.474086	729.4000244
1318.012251	730.5999756
1318.55036	731.2000122
1319.088413	726.7999878
1319.62641	725.2000122
1320.164351	730.5999756
1320.702236	728.4000244
1321.240066	731.4000244
1321.777839	728.0
1322.315557	729.0
1322.853219	731.4000244
1323.390826	723.4000244
1323.928376	734.7999878
1324.465871	732.0
1325.003309	731.5999756
1325.540692	733.7999878
1326.07802	728.5999756
1326.615291	731.7999878
1327.152506	729.2000122
1327.689666	728.4000244
1328.22677	728.7999878
1328.763818	726.7999878
1329.300811	729.2000122
1329.837747	726.5999756
1330.374628	725.7999878
1330.911453	736.5999756
1331.448222	721.5999756
1331.984936	730.2000122
1332.521594	731.7999878
1333.058196	731.7999878
1333.594742	729.7999878
1334.131232	731.0
1334.667667	728.7999878
1335.204046	731.7999878
1335.740369	733.4000244
1336.276637	725.4000244
1336.812848	729.0
1337.349004	727.4000244
1337.885105	728.7999878
1338.421149	730.2000122
1338.957138	723.4000244
1339.493071	727.7999878
1340.028949	729.5999756
1340.56477	729.2000122
1341.100536	733.0
1341.636246	728.4000244
1342.171901	727.0
1342.7075	732.2000122
1343.243043	727.2000122
1343.77853	731.2000122
1344.313962	728.2000122
1344.849338	730.7999878
1345.384659	729.7999878
1345.919923	728.7999878
1346.455133	729.4000244
1346.990286	729.0
1347.525384	728.4000244
1348.060426	736.4000244
1348.595412	729.7999878
1349.130343	726.0
1349.665218	727.4000244
1350.200037	729.5999756
1350.734801	727.5999756
1351.269509	732.2000122
1351.804162	729.7999878
1352.338758	724.7999878
1352.8733	735.0
1353.407785	732.7999878
1353.942215	727.5999756
1354.476589	734.2000122
1355.010908	731.7999878
1355.545171	729.5999756
1356.079379	727.2000122
1356.61353	730.2000122
1357.147627	733.4000244
1357.681667	727.0
1358.215652	730.7999878
1358.749582	731.4000244
1359.283456	730.2000122
1359.817274	734.2000122
1360.351037	733.2000122
1360.884744	726.2000122
1361.418395	731.2000122
1361.951991	725.2000122
1362.485531	731.7999878
1363.019016	724.4000244
1363.552445	728.0
1364.085819	730.7999878
1364.619137	731.5999756
1365.1524	732.5999756
1365.685607	735.0
1366.218758	732.5999756
1366.751854	734.4000244
1367.284894	733.7999878
1367.817879	727.0
1368.350808	727.7999878
1368.883682	725.4000244
1369.4165	733.7999878
1369.949263	742.4000244
1370.48197	745.7999878
1371.014622	733.7999878
1371.547218	729.2000122
1372.079758	729.7999878
1372.612244	732.0
1373.144673	731.4000244
1373.677047	731.5999756
1374.209366	733.2000122
1374.741629	725.5999756
1375.273836	729.2000122
1375.805989	731.0
1376.338085	735.2000122
1376.870126	730.5999756
1377.402112	732.7999878
1377.934042	723.5999756
1378.465917	733.0
1378.997736	733.4000244
1379.5295	728.5999756
1380.061208	731.4000244
1380.592861	727.7999878
1381.124459	727.0
1381.656	726.4000244
1382.187487	730.4000244
1382.718918	731.5999756
1383.250294	736.7999878
1383.781614	735.0
1384.312879	733.5999756
1384.844088	735.5999756
1385.375242	736.0
1385.90634	738.4000244
1386.437383	747.4000244
1386.968371	757.5999756
1387.499303	794.0
1388.03018	1044.800049
1388.561001	1734.400024
1389.091767	1256.0
1389.622478	819.0
1390.153133	763.7999878
1390.683733	747.0
1391.214277	735.2000122
1391.744766	736.7999878
1392.2752	736.4000244
1392.805578	731.7999878
1393.335901	730.7999878
1393.866168	735.5999756
1394.396381	730.0
1394.926537	727.5999756
1395.456639	728.0
1395.986685	727.7999878
1396.516675	729.4000244
1397.046611	727.5999756
1397.576491	732.4000244
1398.106315	731.5999756
1398.636084	724.7999878
1399.165798	734.5999756
1399.695457	733.2000122
1400.22506	730.2000122
1400.754608	731.2000122
1401.284101	732.2000122
1401.813538	728.4000244
1402.34292	732.2000122
1402.872247	732.4000244
1403.401518	728.5999756
1403.930734	728.7999878
1404.459895	732.4000244
1404.989	732.7999878
1405.51805	729.4000244
1406.047045	731.7999878
1406.575984	735.2000122
1407.104869	728.5999756
1407.633697	737.4000244
1408.162471	742.5999756
1408.691189	740.5999756
1409.219852	761.5999756
1409.74846	817.2000122
1410.277013	805.0
1410.80551	754.5999756
1411.333952	737.5999756
1411.862339	733.0
1412.39067	728.0
1412.918946	731.2000122
1413.447167	729.0
1413.975333	734.5999756
1414.503444	730.5999756
1415.031499	733.7999878
1415.559499	738.5999756
1416.087444	728.7999878
1416.615333	728.7999878
1417.143167	731.4000244
1417.670947	728.2000122
1418.19867	727.7999878
1418.726339	733.7999878
1419.253952	729.7999878
1419.781511	730.7999878
1420.309014	726.0
1420.836461	731.7999878
1421.363854	735.0
1421.891191	732.0
1422.418474	726.7999878
1422.945701	729.7999878
1423.472872	728.5999756
1423.999989	729.7999878
1424.52705	726.7999878
1425.054057	730.7999878
1425.581008	729.7999878
1426.107904	731.7999878
1426.634745	726.7999878
1427.16153	729.7999878
1427.688261	730.7999878
1428.214936	726.7999878
1428.741556	729.5999756
1429.268121	729.2000122
1429.794631	727.0
1430.321085	731.2000122
1430.847485	726.4000244
1431.373829	726.0
1431.900118	723.0
1432.426353	726.5999756
1432.952532	729.2000122
1433.478655	730.7999878
1434.004724	723.5999756
1434.530738	731.0
1435.056696	729.4000244
1435.5826	726.0
1436.108448	726.7999878
1436.634241	724.0
1437.159979	724.7999878
1437.685662	731.2000122
1438.21129	729.2000122
1438.736863	727.2000122
1439.262381	728.5999756
1439.787843	725.0
1440.313251	728.0
1440.838603	725.2000122
1441.3639	726.5999756
1441.889143	723.5999756
1442.41433	723.5999756
1442.939462	725.4000244
1443.464539	725.2000122
1443.989561	730.2000122
1444.514528	727.7999878
1445.03944	731.7999878
1445.564297	729.4000244
1446.089099	729.0
1446.613846	727.4000244
1447.138537	726.4000244
1447.663174	730.7999878
1448.187756	724.4000244
1448.712282	728.4000244
1449.236754	728.0
1449.761171	730.5999756
1450.285532	727.4000244
1450.809839	723.2000122
1451.33409	725.0
1451.858287	727.7999878
1452.382428	726.4000244
1452.906515	730.0
1453.430546	723.2000122
1453.954523	725.4000244
1454.478444	725.4000244
1455.002311	723.5999756
1455.526123	727.0
1456.049879	729.4000244
1456.573581	725.7999878
1457.097227	725.2000122
1457.620819	725.5999756
1458.144356	726.2000122
1458.667837	722.0
1459.191264	724.5999756
1459.714636	725.0
1460.237952	724.4000244
1460.761214	724.0
1461.284421	726.2000122
1461.807573	728.0
1462.33067	727.0
1462.853712	730.5999756
1463.376699	727.2000122
1463.899632	726.4000244
1464.422509	723.7999878
1464.945331	726.0
1465.468099	730.7999878
1465.990811	726.7999878
1466.513469	722.2000122
1467.036071	729.0
1467.558619	732.2000122
1468.081112	723.4000244
1468.60355	727.7999878
1469.125933	725.2000122
1469.648261	728.7999878
1470.170534	729.4000244
1470.692752	727.7999878
1471.214916	720.0
1471.737024	725.5999756
1472.259078	725.7999878
1472.781077	729.0
1473.303021	725.4000244
1473.82491	724.5999756
1474.346744	727.4000244
1474.868523	721.0
1475.390248	725.5999756
1475.911917	723.2000122
1476.433532	729.0
1476.955092	727.0
1477.476597	724.0
1477.998047	729.7999878
1478.519442	727.5999756
1479.040783	722.5999756
1479.562068	725.2000122
1480.083299	723.5999756
1480.604475	727.2000122
1481.125596	724.0
1481.646663	728.5999756
1482.167674	726.5999756
1482.688631	722.7999878
1483.209533	720.7999878
1483.73038	727.4000244
1484.251172	725.4000244
1484.771909	724.7999878
1485.292592	725.7999878
1485.81322	721.5999756
1486.333793	725.0
1486.854311	731.0
1487.374775	727.5999756
1487.895183	729.2000122
1488.415537	718.7999878
1488.935836	729.2000122
1489.456081	727.5999756
1489.97627	726.0
1490.496405	723.0
1491.016485	724.5999756
1491.536511	729.0
1492.056481	726.2000122
1492.576397	725.2000122
1493.096258	726.2000122
1493.616064	726.0
1494.135816	723.7999878
1494.655513	719.5999756
1495.175155	724.4000244
1495.694742	722.7999878
1496.214274	724.7999878
1496.733752	724.0
1497.253175	725.0
1497.772544	722.2000122
1498.291858	728.5999756
1498.811116	730.2000122
1499.330321	720.4000244
1499.84947	730.5999756
1500.368565	727.4000244
1500.887605	727.2000122
1501.406591	722.5999756
1501.925521	722.4000244
1502.444397	723.0
1502.963219	723.4000244
1503.481985	724.7999878
1504.000697	726.4000244
1504.519355	726.0
1505.037957	724.0
1505.556505	723.2000122
1506.074999	728.4000244
1506.593437	723.4000244
1507.111821	721.4000244
1507.63015	725.4000244
1508.148425	728.2000122
1508.666645	722.4000244
1509.18481	722.4000244
1509.702921	724.0
1510.220977	726.5999756
1510.738979	729.2000122
1511.256925	723.5999756
1511.774817	727.7999878
1512.292655	726.0
1512.810438	726.2000122
1513.328166	724.5999756
1513.84584	724.4000244
1514.363459	726.4000244
1514.881023	720.5999756
1515.398533	721.4000244
1515.915988	724.7999878
1516.433389	726.2000122
1516.950734	723.4000244
1517.468026	725.7999878
1517.985263	725.2000122
1518.502445	724.7999878
1519.019572	726.0
1519.536645	721.5999756
1520.053664	721.2000122
1520.570628	727.5999756
1521.087537	727.7999878
1521.604392	720.4000244
1522.121192	726.4000244
1522.637937	730.0
1523.154628	723.7999878
1523.671265	725.7999878
1524.187847	722.5999756
1524.704374	729.4000244
1525.220847	725.4000244
1525.737265	726.2000122
1526.253629	728.2000122
1526.769938	726.0
1527.286192	721.5999756
1527.802392	727.5999756
1528.318538	725.7999878
1528.834629	729.7999878
1529.350666	725.5999756
1529.866648	726.5999756
1530.382575	721.4000244
1530.898448	722.7999878
1531.414266	726.5999756
1531.93003	726.7999878
1532.44574	723.7999878
1532.961395	722.2000122
1533.476995	723.4000244
1533.992541	724.5999756
1534.508033	727.0
1535.02347	727.7999878
1535.538852	725.2000122
1536.05418	727.0
1536.569454	726.7999878
1537.084673	726.4000244
1537.599837	728.7999878
1538.114947	727.5999756
1538.630003	729.2000122
1539.145004	723.7999878
1539.659951	731.7999878
1540.174843	729.0
1540.689681	731.4000244
1541.204465	721.7999878
1541.719194	721.7999878
1542.233868	720.4000244
1542.748488	725.4000244
1543.263054	724.4000244
1543.777565	729.0
1544.292022	725.7999878
1544.806424	721.5999756
1545.320772	723.4000244
1545.835066	725.4000244
1546.349305	727.4000244
1546.863489	727.0
1547.37762	727.5999756
1547.891696	726.4000244
1548.405717	726.5999756
1548.919684	722.4000244
1549.433597	726.2000122
1549.947455	726.0
1550.461259	726.2000122
1550.975009	724.0
1551.488704	726.5999756
1552.002345	724.5999756
1552.515931	729.7999878
1553.029463	721.2000122
1553.542941	726.2000122
1554.056364	725.0
1554.569733	727.5999756
1555.083048	726.7999878
1555.596308	726.0
1556.109514	723.4000244
1556.622665	728.4000244
1557.135762	728.0
1557.648805	730.0
1558.161794	723.7999878
1558.674728	722.5999756
1559.187608	729.4000244
1559.700433	723.5999756
1560.213205	722.0
1560.725921	728.5999756
1561.238584	722.0
1561.751192	722.2000122
1562.263746	729.0
1562.776246	728.7999878
1563.288691	727.5999756
1563.801082	724.4000244
1564.313419	726.4000244
1564.825701	725.5999756
1565.337929	728.7999878
1565.850103	730.0
1566.362223	723.2000122
1566.874288	723.2000122
1567.386299	728.2000122
1567.898256	729.0
1568.410158	730.4000244
1568.922007	720.4000244
1569.4338	725.7999878
1569.94554	731.5999756
1570.457226	732.2000122
1570.968857	725.5999756
1571.480434	728.7999878
1571.991956	725.2000122
1572.503425	725.0
1573.014839	723.2000122
1573.526199	728.7999878
1574.037505	726.0
1574.548756	729.4000244
1575.059953	726.0
1575.571096	726.2000122
1576.082185	727.0
1576.59322	724.0
1577.1042	725.5999756
1577.615126	727.2000122
1578.125998	726.2000122
1578.636816	730.2000122
1579.14758	726.2000122
1579.658289	723.2000122
1580.168944	724.4000244
1580.679545	723.0
1581.190092	725.4000244
1581.700585	723.0
1582.211023	726.2000122
1582.721407	726.5999756
1583.231737	726.7999878
1583.742013	733.4000244
1584.252235	725.5999756
1584.762403	724.7999878
1585.272516	722.4000244
1585.782575	725.5999756
1586.292581	720.7999878
1586.802532	728.2000122
1587.312428	732.0
1587.822271	728.5999756
1588.33206	730.4000244
1588.841794	727.5999756
1589.351474	726.0
1589.8611	728.7999878
1590.370672	726.0
1590.88019	729.0
1591.389654	727.0
1591.899064	725.4000244
1592.408419	725.7999878
