1042.452273	1064.599976
1043.018714	1067.199951
1043.585098	1054.199951
1044.151424	1064.599976
1044.717692	1056.199951
1045.283903	1058.800049
1045.850056	1066.800049
1046.416151	1063.199951
1046.982188	1064.0
1047.548167	1041.400024
1048.114089	1059.599976
1048.679953	1055.0
1049.24576	1056.400024
1049.811509	1062.0
1050.3772	1048.199951
1050.942833	1040.599976
1051.508408	1045.199951
1052.073926	1056.0
1052.639387	1057.800049
1053.204789	1059.0
1053.770134	1051.599976
1054.335421	1058.0
1054.900651	1046.800049
1055.465823	1049.800049
1056.030937	1057.199951
1056.595993	1055.800049
1057.160992	1053.800049
1057.725934	1054.0
1058.290817	1050.400024
1058.855643	1054.0
1059.420411	1043.599976
1059.985122	1048.800049
1060.549775	1054.599976
1061.114371	1049.800049
1061.678908	1048.800049
1062.243389	1053.800049
1062.807811	1043.199951
1063.372176	1067.599976
1063.936483	1056.199951
1064.500733	1048.0
1065.064925	1050.800049
1065.62906	1055.800049
1066.193137	1050.0
1066.757156	1042.400024
1067.321118	1048.800049
1067.885022	1036.0
1068.448869	1042.800049
1069.012658	1043.400024
1069.57639	1053.199951
1070.140063	1036.800049
1070.70368	1050.0
1071.267239	1044.800049
1071.83074	1052.599976
1072.394184	1036.800049
1072.95757	1047.199951
1073.520899	1043.400024
1074.08417	1045.199951
1074.647383	1037.199951
1075.21054	1039.800049
1075.773638	1043.0
1076.336679	1042.599976
1076.899663	1036.400024
1077.462589	1036.800049
1078.025457	1046.0
1078.588268	1040.199951
1079.151022	1029.599976
1079.713718	1039.0
1080.276356	1054.199951
1080.838937	1036.400024
1081.401461	1033.599976
1081.963927	1037.199951
1082.526336	1036.0
1083.088687	1032.599976
1083.650981	1030.400024
1084.213217	1041.0
1084.775396	1032.199951
1085.337517	1033.400024
1085.899581	1027.199951
1086.461587	1039.599976
1087.023536	1027.199951
1087.585428	1034.800049
1088.147262	1025.199951
1088.709039	1033.800049
1089.270758	1025.199951
1089.83242	1044.400024
1090.394024	1039.800049
1090.955571	1025.199951
1091.517061	1031.599976
1092.078493	1028.0
1092.639868	1018.0
1093.201185	1024.599976
1093.762445	1028.599976
1094.323648	1037.400024
1094.884793	1018.599976
1095.445881	1026.599976
1096.006911	1027.0
1096.567884	1018.0
1097.1288	1033.199951
1097.689659	1036.199951
1098.25046	1021.400024
1098.811203	1015.0
1099.37189	1017.599976
1099.932518	1035.800049
1100.49309	1024.599976
1101.053604	1022.400024
1101.614061	1016.799988
1102.174461	1023.599976
1102.734803	1012.400024
1103.295088	1024.199951
1103.855316	1012.0
1104.415486	1014.400024
1104.975599	1020.400024
1105.535655	1017.200012
1106.095653	1013.200012
1106.655594	1019.799988
1107.215478	1014.799988
1107.775305	1024.0
1108.335074	1013.799988
1108.894786	1009.599976
1109.45444	1018.200012
1110.014038	1021.400024
1110.573578	1012.599976
1111.133061	1028.0
1111.692486	1015.799988
1112.251854	1013.400024
1112.811165	1014.400024
1113.370419	1018.599976
1113.929616	1002.599976
1114.488755	1012.799988
1115.047837	1018.799988
1115.606862	1012.599976
1116.16583	1011.200012
1116.72474	1013.400024
1117.283593	1022.400024
1117.842389	1015.200012
1118.401128	1013.400024
1118.959809	1014.400024
1119.518433	1010.0
1120.077	1004.799988
1120.63551	1017.799988
1121.193963	1016.0
1121.752358	1014.799988
1122.310697	1008.799988
1122.868978	1018.400024
1123.427202	1014.0
1123.985368	1014.599976
1124.543478	1015.0
1125.10153	1003.200012
1125.659526	1013.0
1126.217464	1005.400024
1126.775345	1008.0
1127.333168	1010.200012
1127.890935	1014.200012
1128.448644	1011.799988
1129.006297	1006.0
1129.563892	1005.0
1130.12143	1007.0
1130.678911	1002.799988
1131.236335	1009.599976
1131.793701	1020.200012
1132.351011	1001.200012
1132.908263	1011.400024
1133.465458	1016.0
1134.022597	1018.400024
1134.579678	1006.599976
1135.136702	1009.200012
1135.693669	1014.799988
1136.250578	1010.599976
1136.807431	1011.599976
1137.364227	1005.799988
1137.920965	1002.400024
1138.477647	1015.200012
1139.034271	1005.400024
1139.590839	1009.799988
1140.147349	1009.200012
1140.703802	1014.200012
1141.260198	1001.400024
1141.816537	1003.200012
1142.37282	1006.0
1142.929045	1015.599976
1143.485213	1018.400024
1144.041323	1002.400024
1144.597377	1006.599976
1145.153374	1011.599976
1145.709314	1003.400024
1146.265197	1017.200012
1146.821023	1028.199951
1147.376792	1032.400024
1147.932503	1016.599976
1148.488158	1029.199951
1149.043756	1040.400024
1149.599297	1103.199951
1150.154781	1234.400024
1150.710207	1173.400024
1151.265577	1043.0
1151.82089	1025.199951
1152.376146	1012.599976
1152.931345	1008.400024
1153.486487	1003.200012
1154.041572	998.0
1154.5966	999.7999878
1155.151571	1010.0
1155.706485	1007.0
1156.261342	996.4000244
1156.816142	1008.200012
1157.370885	1009.400024
1157.925572	999.7999878
1158.480201	1008.799988
1159.034774	1001.799988
1159.589289	1007.400024
1160.143748	995.4000244
1160.698149	1002.200012
1161.252494	992.7999878
1161.806782	1009.799988
1162.361013	1006.0
1162.915187	1007.799988
1163.469304	1006.799988
1164.023364	1004.400024
1164.577368	1003.200012
1165.131314	1000.400024
1165.685204	994.7999878
1166.239036	998.0
1166.792812	995.4000244
1167.346531	1001.200012
1167.900193	994.5999756
1168.453798	1001.200012
1169.007347	1002.599976
1169.560838	1012.200012
1170.114273	992.0
1170.66765	1003.599976
1171.220971	997.0
1171.774235	995.4000244
1172.327443	998.7999878
1172.880593	1004.0
1173.433687	995.7999878
1173.986723	1005.200012
1174.539703	1003.0
1175.092626	1008.400024
1175.645493	1000.599976
1176.198302	1000.599976
1176.751055	995.5999756
1177.303751	990.0
1177.85639	993.2000122
1178.408972	996.2000122
1178.961498	992.4000244
1179.513966	997.2000122
1180.066378	998.0
1180.618733	991.5999756
1181.171032	997.5999756
1181.723273	997.0
1182.275458	993.0
1182.827586	998.0
1183.379657	991.4000244
1183.931672	989.4000244
1184.48363	1001.200012
1185.035531	990.0
1185.587375	993.0
1186.139162	999.7999878
1186.690893	991.5999756
1187.242567	995.4000244
1187.794184	995.2000122
1188.345745	993.5999756
1188.897249	1002.0
1189.448696	990.0
1190.000086	993.5999756
1190.55142	1003.400024
1191.102697	994.4000244
1191.653918	992.7999878
1192.205081	998.0
1192.756188	991.7999878
1193.307238	1008.400024
1193.858232	991.7999878
1194.409169	993.7999878
1194.960049	990.5999756
1195.510872	993.2000122
1196.061639	999.5999756
1196.612349	995.5999756
1197.163003	988.7999878
1197.713599	990.4000244
1198.264139	986.5999756
1198.814623	989.7999878
1199.36505	985.7999878
1199.91542	992.7999878
1200.465734	991.4000244
1201.01599	980.7999878
1201.566191	989.2000122
1202.116334	989.2000122
1202.666421	989.4000244
1203.216452	985.7999878
1203.766425	988.4000244
1204.316343	980.0
1204.866203	999.0
1205.416007	992.4000244
1205.965754	991.7999878
1206.515445	986.0
1207.065079	984.7999878
1207.614657	983.2000122
1208.164177	985.0
1208.713642	981.0
1209.26305	986.2000122
1209.812401	994.2000122
1210.361695	980.2000122
1210.910933	985.2000122
1211.460115	980.0
1212.00924	987.0
1212.558308	977.7999878
1213.10732	979.0
1213.656275	988.4000244
1214.205174	986.5999756
1214.754016	977.0
1215.302801	987.0
1215.85153	975.4000244
1216.400203	978.7999878
1216.948819	980.2000122
1217.497378	990.0
1218.045881	980.4000244
1218.594327	995.4000244
1219.142717	976.5999756
1219.691051	978.0
1220.239327	979.7999878
1220.787548	984.0
1221.335712	982.7999878
1221.883819	982.4000244
1222.43187	980.0
1222.979864	987.4000244
1223.527802	983.2000122
1224.075683	981.7999878
1224.623508	985.0
1225.171277	975.4000244
1225.718989	982.5999756
1226.266644	975.7999878
1226.814243	984.0
1227.361786	980.0
1227.909272	976.7999878
1228.456702	976.4000244
1229.004075	974.7999878
1229.551392	974.5999756
1230.098652	987.7999878
1230.645856	980.5999756
1231.193003	986.0
1231.740094	980.5999756
1232.287129	989.2000122
1232.834107	979.4000244
1233.381029	979.7999878
1233.927894	982.5999756
1234.474703	978.4000244
1235.021455	976.2000122
1235.568151	979.0
1236.114791	985.2000122
1236.661374	977.2000122
1237.207901	981.5999756
1237.754372	981.0
1238.300786	971.5999756
1238.847144	970.2000122
1239.393445	975.5999756
1239.93969	975.5999756
1240.485879	975.0
1241.032011	984.7999878
1241.578087	987.5999756
1242.124106	975.2000122
1242.67007	977.2000122
1243.215976	981.4000244
1243.761827	972.5999756
1244.307621	968.2000122
1244.853359	976.4000244
1245.39904	968.2000122
1245.944665	979.4000244
1246.490234	965.0
1247.035746	979.5999756
1247.581203	981.4000244
1248.126602	970.4000244
1248.671946	982.2000122
1249.217233	982.0
1249.762464	972.2000122
1250.307638	983.5999756
1250.852757	973.5999756
1251.397819	975.7999878
1251.942824	970.5999756
1252.487774	976.0
1253.032667	969.7999878
1253.577503	976.5999756
1254.122284	980.7999878
1254.667008	976.5999756
1255.211676	972.5999756
1255.756288	975.2000122
1256.300843	980.4000244
1256.845342	965.2000122
1257.389785	976.7999878
1257.934172	967.0
1258.478502	990.7999878
1259.022776	979.7999878
1259.566994	976.2000122
1260.111156	974.5999756
1260.655261	967.2000122
1261.199311	975.5999756
1261.743304	975.2000122
1262.28724	981.0
1262.831121	981.7999878
1263.374945	978.4000244
1263.918713	998.4000244
1264.462425	995.4000244
1265.006081	1009.0
1265.54968	990.2000122
1266.093223	989.7999878
1266.636711	975.4000244
1267.180141	978.7999878
1267.723516	966.4000244
1268.266835	976.2000122
1268.810097	970.2000122
1269.353303	974.2000122
1269.896453	968.0
1270.439547	967.2000122
1270.982584	958.4000244
1271.525566	967.7999878
1272.068491	968.2000122
1272.61136	977.2000122
1273.154173	961.7999878
1273.69693	975.5999756
1274.239631	970.4000244
1274.782275	959.0
1275.324864	965.5999756
1275.867396	969.0
1276.409872	969.2000122
1276.952292	970.5999756
1277.494656	973.5999756
1278.036964	957.2000122
1278.579215	969.0
1279.121411	966.2000122
1279.66355	969.0
1280.205634	972.7999878
1280.747661	976.4000244
1281.289632	978.4000244
1281.831547	989.0
1282.373406	989.0
1282.915209	1012.400024
1283.456955	1043.0
1283.998646	1169.0
1284.540281	1414.199951
1285.081859	1529.400024
1285.623381	1249.199951
1286.164848	1062.0
1286.706258	1002.799988
1287.247612	971.2000122
1287.788911	975.7999878
1288.330153	965.4000244
1288.871339	977.7999878
1289.412469	966.4000244
1289.953543	965.7999878
1290.494561	964.5999756
1291.035523	959.5999756
1291.576428	959.0
1292.117278	961.2000122
1292.658072	956.4000244
1293.19881	968.0
1293.739492	961.0
1294.280118	963.7999878
1294.820687	962.0
1295.361201	955.5999756
1295.901659	963.7999878
1296.442061	964.5999756
1296.982406	964.4000244
1297.522696	954.5999756
1298.06293	963.7999878
1298.603108	957.7999878
1299.143229	970.0
1299.683295	959.2000122
1300.223305	959.2000122
1300.763259	954.0
1301.303157	955.5999756
1301.842999	959.5999756
1302.382785	960.2000122
1302.922515	957.2000122
1303.462189	949.0
1304.001807	961.4000244
1304.541369	957.4000244
1305.080875	958.0
1305.620326	965.2000122
1306.15972	960.2000122
1306.699058	959.4000244
1307.238341	953.4000244
1307.777567	963.4000244
1308.316738	958.0
1308.855853	967.4000244
1309.394912	966.2000122
1309.933915	956.0
1310.472862	954.4000244
1311.011753	959.4000244
1311.550588	956.7999878
1312.089367	958.0
1312.62809	955.2000122
1313.166758	960.0
1313.70537	961.5999756
1314.243925	958.7999878
1314.782425	963.5999756
1315.320869	958.2000122
1315.859257	953.0
1316.397589	956.4000244
1316.935866	952.7999878
1317.474086	946.5999756
1318.012251	956.7999878
1318.55036	960.5999756
1319.088413	951.7999878
1319.62641	957.0
1320.164351	951.7999878
1320.702236	949.0
1321.240066	962.0
1321.777839	944.2000122
1322.315557	957.5999756
1322.853219	966.0
1323.390826	954.4000244
1323.928376	958.7999878
1324.465871	953.2000122
1325.003309	952.2000122
1325.540692	948.4000244
1326.07802	942.7999878
1326.615291	955.5999756
1327.152506	952.2000122
1327.689666	952.2000122
1328.22677	949.7999878
1328.763818	955.5999756
1329.300811	952.2000122
1329.837747	953.0
1330.374628	948.7999878
1330.911453	956.7999878
1331.448222	959.0
1331.984936	942.7999878
1332.521594	954.0
1333.058196	948.7999878
1333.594742	944.0
1334.131232	949.5999756
1334.667667	951.4000244
1335.204046	949.5999756
1335.740369	945.2000122
1336.276637	954.4000244
1336.812848	946.5999756
1337.349004	953.7999878
1337.885105	944.2000122
1338.421149	946.0
1338.957138	947.5999756
1339.493071	944.2000122
1340.028949	951.0
1340.56477	953.7999878
1341.100536	948.2000122
1341.636246	941.4000244
1342.171901	944.0
1342.7075	943.7999878
1343.243043	947.4000244
1343.77853	959.4000244
1344.313962	954.2000122
1344.849338	951.5999756
1345.384659	949.5999756
1345.919923	956.5999756
1346.455133	944.4000244
1346.990286	945.7999878
1347.525384	947.5999756
1348.060426	940.2000122
1348.595412	949.4000244
1349.130343	946.0
1349.665218	944.4000244
1350.200037	938.0
1350.734801	948.7999878
1351.269509	941.7999878
1351.804162	933.4000244
1352.338758	953.5999756
1352.8733	940.4000244
1353.407785	938.2000122
1353.942215	947.0
1354.476589	938.2000122
1355.010908	945.2000122
1355.545171	938.7999878
1356.079379	943.4000244
1356.61353	949.4000244
1357.147627	938.4000244
1357.681667	946.2000122
1358.215652	944.0
1358.749582	939.4000244
1359.283456	945.2000122
1359.817274	947.4000244
1360.351037	950.7999878
1360.884744	945.5999756
1361.418395	946.0
1361.951991	942.5999756
1362.485531	951.2000122
1363.019016	947.4000244
1363.552445	929.0
1364.085819	937.7999878
1364.619137	940.4000244
1365.1524	952.4000244
1365.685607	939.7999878
1366.218758	942.7999878
1366.751854	935.2000122
1367.284894	946.4000244
1367.817879	945.2000122
1368.350808	942.0
1368.883682	937.7999878
1369.4165	945.4000244
1369.949263	955.5999756
1370.48197	957.2000122
1371.014622	947.0
1371.547218	946.0
1372.079758	935.7999878
1372.612244	939.4000244
1373.144673	934.2000122
1373.677047	942.7999878
1374.209366	944.5999756
1374.741629	930.2000122
1375.273836	943.2000122
1375.805989	943.2000122
1376.338085	944.5999756
1376.870126	930.2000122
1377.402112	946.4000244
1377.934042	944.7999878
1378.465917	942.7999878
1378.997736	943.5999756
1379.5295	942.7999878
1380.061208	940.5999756
1380.592861	936.0
1381.124459	940.0
1381.656	937.5999756
1382.187487	948.4000244
1382.718918	941.2000122
1383.250294	938.4000244
1383.781614	951.2000122
1384.312879	946.2000122
1384.844088	955.0
1385.375242	945.4000244
1385.90634	968.2000122
1386.437383	998.0
1386.968371	1049.599976
1387.499303	1245.199951
1388.03018	1829.0
1388.561001	1924.400024
1389.091767	1265.199951
1389.622478	1023.599976
1390.153133	977.2000122
1390.683733	962.0
1391.214277	949.2000122
1391.744766	946.5999756
1392.2752	937.2000122
1392.805578	942.0
1393.335901	944.4000244
1393.866168	934.4000244
1394.396381	944.2000122
1394.926537	934.7999878
1395.456639	937.2000122
1395.986685	937.4000244
1396.516675	942.0
1397.046611	936.5999756
1397.576491	940.5999756
1398.106315	942.2000122
1398.636084	936.5999756
1399.165798	929.0
1399.695457	929.5999756
1400.22506	933.0
1400.754608	924.2000122
1401.284101	940.0
1401.813538	931.0
1402.34292	934.7999878
1402.872247	935.2000122
1403.401518	934.0
1403.930734	934.4000244
1404.459895	925.0
1404.989	941.2000122
1405.51805	922.7999878
1406.047045	935.5999756
1406.575984	932.5999756
1407.104869	943.4000244
1407.633697	940.7999878
1408.162471	959.2000122
1408.691189	967.4000244
1409.219852	989.7999878
1409.74846	1002.200012
1410.277013	970.4000244
1410.80551	946.7999878
1411.333952	937.7999878
1411.862339	939.0
1412.39067	923.7999878
1412.918946	932.5999756
1413.447167	937.2000122
1413.975333	929.4000244
1414.503444	924.7999878
1415.031499	927.7999878
1415.559499	940.2000122
1416.087444	933.4000244
1416.615333	924.5999756
1417.143167	931.4000244
1417.670947	923.2000122
1418.19867	928.7999878
1418.726339	924.5999756
1419.253952	926.2000122
1419.781511	927.5999756
1420.309014	925.7999878
1420.836461	927.4000244
1421.363854	927.4000244
1421.891191	929.4000244
1422.418474	931.7999878
1422.945701	923.2000122
1423.472872	925.2000122
1423.999989	927.0
1424.52705	929.4000244
1425.054057	932.4000244
1425.581008	940.7999878
1426.107904	920.5999756
1426.634745	938.5999756
1427.16153	924.7999878
1427.688261	926.0
1428.214936	928.7999878
1428.741556	926.4000244
1429.268121	922.5999756
1429.794631	921.7999878
1430.321085	926.4000244
1430.847485	929.4000244
1431.373829	921.5999756
1431.900118	923.5999756
1432.426353	913.0
1432.952532	924.7999878
1433.478655	933.7999878
1434.004724	920.7999878
1434.530738	930.4000244
1435.056696	924.7999878
1435.5826	917.4000244
1436.108448	928.4000244
1436.634241	923.0
1437.159979	921.0
1437.685662	923.7999878
1438.21129	931.4000244
1438.736863	919.2000122
1439.262381	925.2000122
1439.787843	925.0
1440.313251	923.5999756
1440.838603	932.5999756
1441.3639	919.7999878
1441.889143	924.2000122
1442.41433	917.4000244
1442.939462	922.5999756
1443.464539	915.4000244
1443.989561	919.4000244
1444.514528	919.5999756
1445.03944	917.4000244
1445.564297	924.0
1446.089099	921.7999878
1446.613846	916.7999878
1447.138537	920.0
1447.663174	918.4000244
1448.187756	917.7999878
1448.712282	916.5999756
1449.236754	917.4000244
1449.761171	922.5999756
1450.285532	922.7999878
1450.809839	927.2000122
1451.33409	919.4000244
1451.858287	918.4000244
1452.382428	912.0
1452.906515	913.7999878
1453.430546	919.5999756
1453.954523	925.7999878
1454.478444	919.4000244
1455.002311	916.2000122
1455.526123	923.0
1456.049879	911.0
1456.573581	908.2000122
1457.097227	909.5999756
1457.620819	914.4000244
1458.144356	911.0
1458.667837	916.4000244
1459.191264	917.5999756
1459.714636	914.0
1460.237952	916.4000244
1460.761214	912.5999756
1461.284421	917.7999878
1461.807573	911.4000244
1462.33067	909.5999756
1463.376699	913.5999756
1463.899632	911.4000244
1464.422509	912.4000244
1464.945331	925.2000122
1465.468099	914.7999878
1465.990811	916.5999756
1466.513469	913.7999878
1467.036071	912.0
1467.558619	915.5999756
1468.081112	913.4000244
1468.60355	908.2000122
1469.125933	905.7999878
1469.648261	919.5999756
1470.170534	923.5999756
1470.692752	907.4000244
1471.214916	916.2000122
1471.737024	918.0
1472.259078	904.0
1472.781077	907.7999878
1473.303021	917.4000244
1473.82491	915.0
1474.346744	901.2000122
1474.868523	914.0
1475.390248	913.0
1475.911917	912.0
1476.433532	908.5999756
1476.955092	913.0
1477.476597	913.2000122
1477.998047	917.4000244
1478.519442	905.5999756
1479.040783	915.2000122
1479.562068	912.5999756
1480.083299	908.4000244
1480.604475	906.5999756
1481.125596	901.2000122
1481.646663	906.2000122
1482.167674	910.7999878
1482.688631	915.2000122
1483.209533	909.7999878
1483.73038	919.4000244
1484.251172	911.2000122
1484.771909	904.0
1485.292592	917.0
1485.81322	913.7999878
1486.333793	907.0
1486.854311	907.0
1487.374775	905.4000244
1487.895183	916.7999878
1488.415537	920.4000244
1488.935836	907.4000244
1489.456081	899.0
1489.97627	912.4000244
1490.496405	904.2000122
1491.016485	904.5999756
1491.536511	909.2000122
1492.056481	905.5999756
1492.576397	908.7999878
1493.096258	913.2000122
1493.616064	903.5999756
1494.135816	910.0
1494.655513	907.0
1495.175155	904.7999878
1495.694742	898.4000244
1496.214274	905.2000122
1496.733752	903.2000122
1497.253175	905.0
1497.772544	902.4000244
1498.291858	897.0
1498.811116	910.4000244
1499.330321	920.7999878
1499.84947	908.2000122
1500.368565	895.5999756
1500.887605	905.0
1501.406591	902.5999756
1501.925521	903.4000244
1502.444397	899.4000244
1502.963219	905.4000244
1503.481985	902.7999878
1504.000697	909.4000244
1504.519355	901.2000122
1505.037957	906.0
1505.556505	910.0
1506.074999	903.4000244
1506.593437	901.2000122
1507.111821	906.7999878
1507.63015	903.4000244
1508.148425	906.0
1508.666645	904.2000122
1509.18481	900.7999878
1509.702921	899.0
1510.220977	908.7999878
1510.738979	906.2000122
1511.256925	893.5999756
1511.774817	906.7999878
1512.292655	893.7999878
1512.810438	903.5999756
1513.328166	902.5999756
1513.84584	899.7999878
1514.363459	902.2000122
1514.881023	908.4000244
1515.398533	897.4000244
1515.915988	908.7999878
1516.433389	898.5999756
1516.950734	898.5999756
1517.468026	895.0
1517.985263	903.2000122
1518.502445	899.0
1519.019572	901.2000122
1519.536645	900.2000122
1520.053664	898.4000244
1520.570628	899.7999878
1521.087537	899.4000244
1521.604392	899.7999878
1522.121192	902.7999878
1522.637937	906.5999756
1523.154628	895.0
1523.671265	897.4000244
1524.187847	892.0
1524.704374	903.4000244
1525.220847	900.0
1525.737265	898.5999756
1526.253629	905.4000244
1526.769938	905.0
1527.286192	897.0
1527.802392	890.5999756
1528.318538	898.0
1528.834629	902.0
1529.350666	892.0
1529.866648	898.7999878
1530.382575	899.5999756
1530.898448	894.2000122
1531.414266	895.2000122
1531.93003	887.0
1532.44574	903.2000122
1532.961395	897.2000122
1533.476995	905.4000244
1533.992541	895.7999878
1534.508033	897.5999756
1535.02347	896.2000122
1535.538852	900.4000244
1536.05418	898.5999756
1536.569454	897.7999878
1537.084673	895.5999756
1537.599837	899.0
1538.114947	894.4000244
1538.630003	908.4000244
1539.145004	898.7999878
1539.659951	899.4000244
1540.174843	896.7999878
1540.689681	897.4000244
1541.204465	897.2000122
1541.719194	904.0
1542.233868	896.4000244
1542.748488	893.4000244
1543.263054	897.4000244
1543.777565	890.2000122
1544.292022	897.0
1544.806424	906.7999878
1545.320772	902.4000244
1545.835066	900.5999756
1546.349305	899.5999756
1546.863489	883.2000122
1547.37762	898.7999878
1547.891696	896.7999878
1548.405717	901.7999878
1548.919684	899.4000244
1549.433597	892.2000122
1549.947455	903.2000122
1550.461259	897.7999878
1550.975009	901.0
1551.488704	894.4000244
1552.002345	900.5999756
1552.515931	892.4000244
1553.029463	894.7999878
1553.542941	896.2000122
1554.056364	900.5999756
1554.569733	897.2000122
1555.083048	894.0
1555.596308	897.7999878
1556.109514	896.5999756
1556.622665	895.4000244
1557.135762	897.7999878
1557.648805	900.2000122
1558.161794	898.5999756
1558.674728	895.2000122
1559.187608	896.5999756
1559.700433	894.0
1560.213205	900.4000244
1560.725921	900.0
1561.238584	909.0
1561.751192	897.7999878
1562.263746	898.2000122
1562.776246	896.5999756
1563.288691	899.2000122
1563.801082	901.7999878
1564.313419	899.0
1564.825701	890.5999756
1565.337929	895.0
1565.850103	896.5999756
1566.362223	899.4000244
1566.874288	893.7999878
1567.386299	899.2000122
1567.898256	896.7999878
1568.410158	893.5999756
1568.922007	899.0
1569.4338	899.4000244
1569.94554	894.2000122
1570.457226	895.5999756
1570.968857	895.2000122
1571.480434	900.5999756
1571.991956	897.2000122
1572.503425	882.0
1573.014839	900.7999878
1573.526199	898.0
1574.037505	888.7999878
1574.548756	895.0
1575.059953	894.0
1575.571096	903.7999878
1576.082185	901.7999878
1576.59322	899.5999756
1577.1042	888.7999878
1577.615126	889.5999756
1578.125998	907.5999756
1578.636816	892.5999756
1579.14758	899.7999878
1579.658289	894.7999878
1580.168944	894.0
1580.679545	889.4000244
1581.190092	897.4000244
1581.700585	885.5999756
1582.211023	891.7999878
1582.721407	893.7999878
1583.231737	895.2000122
1583.742013	895.7999878
1584.252235	885.2000122
1584.762403	890.4000244
1585.272516	885.7999878
1585.782575	896.4000244
1586.292581	892.4000244
1586.802532	887.5999756
1587.312428	898.2000122
1587.822271	887.2000122
1588.33206	897.2000122
1588.841794	882.4000244
1589.351474	889.2000122
1589.8611	895.0
1590.370672	896.0
1590.88019	886.7999878
1591.389654	894.7999878
1591.899064	884.2000122
1592.408419	891.4000244
