1042.452273	686.5
1043.018714	688.0
1043.585098	692.5
1044.151424	686.25
1044.717692	683.25
1045.283903	686.75
1045.850056	684.25
1046.416151	681.5
1046.982188	683.75
1047.548167	690.0
1048.114089	686.75
1048.679953	684.25
1049.24576	682.75
1049.811509	684.75
1050.3772	682.25
1050.942833	679.75
1051.508408	686.25
1052.073926	681.25
1052.639387	678.25
1053.204789	679.0
1053.770134	683.0
1054.335421	680.25
1054.900651	681.5
1055.465823	681.5
1056.030937	683.75
1056.595993	682.25
1057.160992	681.0
1057.725934	679.5
1058.290817	681.5
1058.855643	678.0
1059.420411	677.75
1059.985122	678.75
1060.549775	681.25
1061.114371	676.0
1061.678908	679.0
1062.243389	675.0
1062.807811	679.0
1063.372176	682.0
1063.936483	685.25
1064.500733	683.5
1065.064925	677.75
1065.62906	677.5
1066.193137	683.5
1066.757156	680.25
1067.321118	680.25
1067.885022	682.0
1068.448869	678.0
1069.012658	677.0
1069.57639	677.75
1070.140063	684.5
1070.70368	678.25
1071.267239	676.0
1071.83074	678.0
1072.394184	673.25
1072.95757	678.75
1073.520899	674.75
1074.08417	679.25
1074.647383	675.25
1075.21054	680.75
1075.773638	677.25
1076.336679	675.75
1076.899663	680.5
1077.462589	677.0
1078.025457	675.5
1078.588268	681.75
1079.151022	677.5
1079.713718	680.25
1080.276356	676.5
1080.838937	679.5
1081.401461	675.25
1081.963927	675.0
1082.526336	680.75
1083.088687	675.5
1083.650981	678.75
1084.213217	677.0
1084.775396	676.25
1085.337517	677.75
1085.899581	678.25
1086.461587	678.25
1087.023536	674.75
1087.585428	677.75
1088.147262	677.0
1088.709039	676.0
1089.270758	681.75
1089.83242	677.75
1090.394024	675.75
1090.955571	676.75
1091.517061	678.0
1092.078493	677.5
1092.639868	679.5
1093.201185	678.25
1093.762445	676.5
1094.323648	677.25
1094.884793	671.75
1095.445881	676.5
1096.006911	681.25
1096.567884	677.75
1097.1288	683.5
1097.689659	677.5
1098.25046	678.25
1098.811203	678.25
1099.37189	674.5
1099.932518	675.0
1100.49309	672.5
1101.053604	674.5
1101.614061	677.25
1102.174461	673.75
1102.734803	671.75
1103.295088	676.75
1103.855316	681.5
1104.415486	676.0
1104.975599	675.5
1105.535655	677.5
1106.095653	677.5
1106.655594	677.5
1107.215478	674.25
1107.775305	675.0
1108.335074	674.25
1108.894786	675.25
1109.45444	679.75
1110.014038	677.25
1110.573578	676.25
1111.133061	678.5
1111.692486	674.75
1112.251854	675.0
1112.811165	675.25
1113.370419	678.5
1113.929616	675.75
1114.488755	674.0
1115.047837	676.5
1115.606862	676.25
1116.16583	677.25
1116.72474	680.0
1117.283593	681.25
1117.842389	676.75
1118.401128	680.25
1118.959809	676.25
1119.518433	673.5
1120.077	678.75
1120.63551	675.25
1121.193963	676.0
1121.752358	673.5
1122.310697	677.0
1122.868978	678.75
1123.427202	677.25
1123.985368	675.75
1124.543478	674.0
1125.10153	677.25
1125.659526	674.25
1126.217464	679.0
1126.775345	677.25
1127.333168	674.25
1127.890935	674.25
1128.448644	676.25
1129.006297	674.25
1129.563892	677.0
1130.12143	676.0
1130.678911	673.75
1131.236335	678.25
1131.793701	675.5
1132.351011	682.5
1132.908263	677.5
1133.465458	679.25
1134.022597	676.5
1134.579678	673.5
1135.136702	676.75
1135.693669	678.5
1136.250578	680.75
1136.807431	677.5
1137.364227	678.5
1137.920965	672.5
1138.477647	680.75
1139.034271	679.75
1139.590839	679.0
1140.147349	675.5
1140.703802	681.75
1141.260198	682.25
1141.816537	679.5
1142.37282	687.75
1142.929045	691.5
1143.485213	685.5
1144.041323	680.25
1144.597377	680.25
1145.153374	676.75
1145.709314	681.0
1146.265197	684.75
1146.821023	704.0
1147.376792	694.75
1147.932503	685.25
1148.488158	691.5
1149.043756	702.5
1149.599297	785.75
1150.154781	922.0
1150.710207	807.0
1151.265577	709.5
1151.82089	688.25
1152.376146	679.75
1152.931345	679.0
1153.486487	674.75
1154.041572	680.5
1154.5966	676.5
1155.151571	679.5
1155.706485	678.0
1156.261342	680.0
1156.816142	683.25
1157.370885	673.5
1157.925572	676.75
1158.480201	673.25
1159.034774	680.25
1159.589289	678.25
1160.143748	678.5
1160.698149	675.75
1161.252494	682.5
1161.806782	680.0
1162.361013	681.0
1162.915187	675.25
1163.469304	673.5
1164.023364	675.5
1164.577368	673.25
1165.131314	676.25
1165.685204	678.25
1166.239036	675.75
1166.792812	673.0
1167.346531	680.5
1167.900193	673.5
1168.453798	678.25
1169.007347	678.25
1169.560838	675.5
1170.114273	675.5
1170.66765	674.5
1171.220971	677.5
1171.774235	676.5
1172.327443	676.5
1172.880593	676.0
1173.433687	677.75
1173.986723	675.75
1174.539703	678.0
1175.092626	673.25
1175.645493	677.25
1176.198302	673.5
1176.751055	673.5
1177.303751	678.25
1177.85639	678.0
1178.408972	679.5
1178.961498	675.75
1179.513966	676.25
1180.066378	676.25
1180.618733	675.25
1181.171032	675.25
1181.723273	679.75
1182.275458	677.5
1182.827586	673.75
1183.379657	679.5
1183.931672	675.0
1184.48363	673.0
1185.035531	671.5
1185.587375	673.5
1186.139162	676.75
1186.690893	674.5
1187.242567	677.25
1187.794184	673.75
1188.345745	673.5
1188.897249	672.25
1189.448696	675.75
1190.000086	676.0
1190.55142	675.25
1191.102697	670.5
1191.653918	675.0
1192.205081	672.5
1192.756188	676.5
1193.858232	675.5
1194.409169	671.5
1194.960049	673.75
1195.510872	675.75
1196.061639	675.0
1196.612349	678.5
1197.163003	674.5
1197.713599	675.0
1198.264139	669.25
1198.814623	673.75
1199.36505	676.5
1199.91542	674.0
1200.465734	673.75
1201.01599	675.75
1201.566191	673.0
1202.116334	672.5
1202.666421	674.5
1203.216452	673.5
1203.766425	675.5
1204.316343	672.5
1204.866203	673.0
1205.416007	675.0
1205.965754	673.5
1206.515445	670.25
1207.065079	672.25
1207.614657	678.75
1208.164177	676.0
1208.713642	673.75
1209.26305	671.5
1209.812401	677.5
1210.361695	675.0
1210.910933	675.5
1211.460115	670.5
1212.00924	674.0
1212.558308	674.5
1213.10732	673.5
1213.656275	677.5
1214.205174	675.75
1214.754016	676.5
1215.302801	673.25
1215.85153	672.75
1216.400203	674.5
1216.948819	677.25
1217.497378	675.0
1218.045881	674.0
1218.594327	676.75
1219.142717	675.5
1219.691051	675.25
1220.239327	679.0
1220.787548	675.5
1221.335712	675.25
1221.883819	673.5
1222.43187	675.75
1222.979864	679.25
1223.527802	677.25
1224.075683	679.25
1224.623508	678.25
1225.171277	673.25
1225.718989	674.25
1226.266644	675.0
1226.814243	675.5
1227.361786	677.25
1227.909272	677.25
1228.456702	675.25
1229.004075	676.0
1229.551392	676.75
1230.098652	675.0
1230.645856	674.25
1231.193003	674.75
1231.740094	676.25
1232.287129	677.0
1232.834107	676.25
1233.381029	679.25
1233.927894	676.5
1234.474703	676.25
1235.021455	680.0
1235.568151	673.5
1236.114791	678.25
1236.661374	677.25
1237.207901	677.0
1237.754372	676.5
1238.300786	677.25
1238.847144	679.25
1239.393445	677.0
1239.93969	677.0
1240.485879	676.0
1241.032011	677.25
1241.578087	675.75
1242.124106	679.25
1242.67007	674.5
1243.215976	677.0
1243.761827	677.75
1244.307621	678.25
1244.853359	680.0
1245.39904	678.5
1245.944665	676.25
1246.490234	680.0
1247.035746	683.0
1247.581203	680.75
1248.126602	682.0
1248.671946	681.0
1249.217233	681.75
1249.762464	679.0
1250.307638	681.5
1250.852757	676.5
1251.397819	677.5
1251.942824	681.75
1252.487774	681.5
1253.032667	678.5
1253.577503	678.25
1254.122284	678.0
1254.667008	677.0
1255.211676	679.75
1255.756288	680.75
1256.300843	680.5
1256.845342	679.75
1257.389785	680.5
1257.934172	681.75
1258.478502	689.75
1259.022776	687.25
1259.566994	685.0
1260.111156	696.25
1260.655261	685.0
1261.199311	681.5
1261.743304	691.25
1262.28724	696.75
1262.831121	705.0
1263.374945	716.5
1263.918713	734.0
1264.462425	748.5
1265.006081	729.75
1265.54968	711.25
1266.093223	695.75
1266.636711	687.25
1267.180141	686.5
1267.723516	688.5
1268.266835	686.0
1268.810097	681.5
1269.353303	683.0
1269.896453	683.75
1270.439547	686.75
1270.982584	683.75
1271.525566	683.0
1272.068491	681.0
1272.61136	687.0
1273.154173	678.5
1273.69693	684.75
1274.239631	681.75
1274.782275	685.0
1275.324864	681.0
1275.867396	681.75
1276.409872	682.0
1276.952292	683.5
1277.494656	688.75
1278.036964	682.75
1278.579215	688.5
1279.121411	690.5
1279.66355	691.75
1280.205634	694.75
1280.747661	700.0
1281.289632	708.25
1281.831547	728.0
1282.373406	761.5
1282.915209	821.5
1283.456955	990.75
1283.998646	1344.75
1284.540281	1693.25
1285.081859	1482.0
1285.623381	998.25
1286.164848	800.5
1286.706258	741.75
1287.247612	718.0
1287.788911	705.5
1289.412469	700.25
1289.953543	685.25
1290.494561	688.5
1291.035523	687.5
1291.576428	687.25
1292.117278	686.5
1292.658072	687.0
1293.19881	682.5
1293.739492	684.25
1294.280118	684.5
1294.820687	681.0
1295.361201	681.0
1295.901659	685.0
1296.442061	680.5
1296.982406	683.0
1297.522696	681.75
1298.06293	682.0
1298.603108	679.25
1299.143229	680.25
1299.683295	681.0
1300.223305	680.25
1300.763259	679.5
1301.303157	680.75
1301.842999	685.0
1302.382785	679.0
1302.922515	677.5
1303.462189	680.0
1304.001807	680.0
1304.541369	682.25
1305.080875	680.0
1305.620326	676.5
1306.15972	678.0
1306.699058	679.75
1307.238341	679.75
1307.777567	679.0
1308.316738	679.0
1308.855853	678.25
1309.394912	678.25
1309.933915	677.75
1310.472862	683.5
1311.011753	678.0
1311.550588	679.0
1312.089367	677.0
1312.62809	677.25
1313.166758	681.0
1313.70537	679.75
1314.243925	681.5
1314.782425	679.5
1315.320869	680.5
1315.859257	677.0
1316.397589	677.75
1316.935866	677.75
1317.474086	675.75
1318.012251	678.0
1318.55036	680.0
1319.088413	679.25
1319.62641	683.0
1320.164351	679.5
1320.702236	680.75
1321.240066	676.5
1321.777839	673.0
1322.315557	677.5
1322.853219	676.25
1323.390826	675.0
1323.928376	680.25
1324.465871	679.5
1325.003309	677.25
1325.540692	682.5
1326.07802	675.25
1326.615291	678.75
1327.152506	676.25
1327.689666	679.0
1328.22677	676.0
1328.763818	676.5
1329.300811	679.25
1329.837747	677.5
1330.374628	682.25
1330.911453	679.25
1331.448222	680.75
1331.984936	678.0
1332.521594	677.5
1333.058196	679.0
1333.594742	678.25
1334.131232	680.75
1334.667667	681.0
1335.204046	676.25
1335.740369	681.25
1336.276637	678.5
1336.812848	678.25
1337.349004	680.25
1337.885105	678.25
1338.421149	677.25
1338.957138	680.75
1339.493071	676.75
1340.028949	681.5
1340.56477	677.0
1341.100536	680.0
1341.636246	678.0
1342.171901	677.5
1342.7075	680.5
1343.243043	679.75
1343.77853	681.0
1344.313962	676.25
1344.849338	680.75
1345.384659	676.75
1345.919923	680.0
1346.455133	678.25
1346.990286	676.5
1347.525384	680.5
1348.060426	677.0
1348.595412	677.25
1349.130343	678.25
1349.665218	677.5
1350.200037	679.25
1350.734801	680.75
1351.269509	675.0
1351.804162	679.5
1352.338758	675.5
1352.8733	679.5
1353.407785	679.0
1353.942215	681.0
1354.476589	676.75
1355.010908	682.25
1355.545171	681.0
1356.079379	678.5
1356.61353	680.0
1357.147627	677.0
1357.681667	681.0
1358.215652	681.0
1358.749582	680.25
1359.283456	679.0
1359.817274	676.75
1360.351037	680.5
1360.884744	680.75
1361.418395	676.75
1361.951991	683.5
1362.485531	679.0
1363.019016	679.5
1363.552445	677.75
1364.085819	684.25
1364.619137	684.5
1365.1524	684.25
1365.685607	684.5
1366.218758	686.75
1366.751854	682.25
1367.284894	681.75
1367.817879	682.25
1368.350808	682.5
1368.883682	684.0
1369.4165	697.25
1369.949263	720.25
1370.48197	695.75
1371.014622	689.0
1371.547218	683.0
1372.079758	680.25
1372.612244	683.75
1373.144673	681.0
1373.677047	687.5
1374.209366	680.75
1374.741629	682.5
1375.273836	682.25
1375.805989	684.25
1376.338085	690.0
1376.870126	685.0
1377.402112	685.25
1377.934042	683.0
1378.465917	688.0
1378.997736	686.5
1379.5295	683.5
1380.061208	688.0
1380.592861	690.25
1381.124459	690.5
1381.656	689.75
1382.187487	695.25
1382.718918	693.0
1383.250294	695.5
1383.781614	701.5
1384.312879	708.5
1384.844088	709.75
1385.375242	742.75
1385.90634	770.75
1386.437383	831.25
1386.968371	1026.0
1387.499303	1628.75
1388.03018	2681.75
1388.561001	2148.25
1389.091767	1140.5
1389.622478	846.75
1390.153133	762.25
1390.683733	726.75
1391.214277	716.5
1391.744766	706.75
1392.2752	703.75
1392.805578	697.5
1393.335901	693.25
1393.866168	692.0
1394.396381	695.25
1394.926537	686.25
1395.456639	684.75
1395.986685	686.25
1396.516675	684.0
1397.046611	685.75
1397.576491	687.5
1398.106315	683.25
1398.636084	685.0
1399.165798	688.5
1399.695457	685.5
1400.22506	684.75
1400.754608	679.5
1401.284101	683.75
1401.813538	684.0
1402.34292	687.0
1402.872247	681.0
1403.401518	685.5
1403.930734	680.75
1404.459895	688.5
1404.989	684.75
1405.51805	691.25
1406.047045	689.25
1406.575984	691.0
1407.104869	696.75
1407.633697	711.0
1408.162471	720.5
1408.691189	748.75
1409.219852	792.5
1409.74846	813.5
1410.277013	758.25
1410.80551	722.0
1411.333952	694.25
1411.862339	689.75
1412.39067	685.75
1412.918946	683.0
1413.447167	683.0
1413.975333	681.0
1414.503444	677.75
1415.031499	682.5
1415.559499	685.0
1416.087444	680.25
1416.615333	675.75
1417.143167	677.0
1417.670947	679.5
1418.19867	678.0
1418.726339	679.5
1419.253952	679.75
1419.781511	679.0
1420.309014	679.5
1420.836461	679.5
1421.363854	676.0
1421.891191	680.75
1422.418474	675.0
1422.945701	677.25
1423.472872	678.75
1423.999989	679.0
1424.52705	683.0
1425.054057	683.0
1425.581008	679.25
1426.107904	677.75
1426.634745	679.75
1427.16153	676.0
1427.688261	677.5
1428.214936	675.0
1428.741556	675.0
1429.268121	674.5
1429.794631	675.25
1430.321085	676.5
1430.847485	674.25
1431.373829	671.25
1431.900118	673.5
1432.426353	670.0
1432.952532	675.5
1433.478655	672.0
1434.004724	674.5
1434.530738	672.0
1435.056696	674.75
1435.5826	671.5
1436.108448	674.5
1436.634241	677.25
1437.159979	673.75
1437.685662	672.75
1438.21129	676.0
1438.736863	672.25
1439.262381	672.5
1439.787843	672.0
1440.313251	675.0
1440.838603	671.75
1441.3639	672.75
1441.889143	678.5
1442.41433	671.5
1442.939462	674.5
1443.464539	672.5
1443.989561	674.0
1444.514528	670.25
1445.03944	673.25
1445.564297	671.25
1446.089099	670.75
1446.613846	668.25
1447.138537	672.25
1447.663174	672.25
1448.187756	673.25
1448.712282	672.25
1449.236754	670.25
1449.761171	672.75
1450.285532	670.0
1450.809839	670.5
1451.33409	673.75
1451.858287	672.5
1452.382428	674.5
1452.906515	674.75
1453.430546	668.5
1453.954523	670.25
1454.478444	669.0
1455.002311	671.75
1455.526123	672.5
1456.049879	670.25
1456.573581	674.0
1457.097227	670.25
1457.620819	665.75
1458.144356	671.0
1458.667837	670.5
1459.191264	675.25
1459.714636	669.75
1460.237952	671.75
1460.761214	673.25
1461.284421	673.0
1461.807573	670.0
1462.33067	671.0
1462.853712	672.75
1463.376699	670.5
1463.899632	668.75
1464.422509	670.25
1464.945331	667.75
1465.468099	673.5
1465.990811	668.5
1466.513469	670.25
1467.036071	669.5
1467.558619	668.5
1468.081112	669.0
1468.60355	670.0
1469.125933	670.75
1469.648261	668.5
1470.170534	670.25
1470.692752	672.25
1471.214916	672.75
1471.737024	671.75
1472.259078	668.75
1472.781077	667.25
1473.303021	668.75
1473.82491	669.0
1474.346744	671.25
1474.868523	671.0
1475.390248	669.25
1475.911917	670.0
1476.433532	668.25
1476.955092	672.25
1477.476597	669.0
1477.998047	671.5
1478.519442	671.5
1479.040783	671.25
1479.562068	668.75
1480.083299	671.75
1480.604475	667.75
1481.125596	671.0
1481.646663	668.5
1482.167674	670.0
1482.688631	664.0
1483.209533	670.75
1483.73038	669.25
1484.251172	668.25
1484.771909	669.75
1485.292592	668.5
1485.81322	670.75
1486.333793	667.75
1486.854311	669.5
1487.374775	670.75
1487.895183	667.25
1488.415537	668.0
1488.935836	670.25
1489.456081	669.5
1489.97627	667.75
1490.496405	666.25
1491.016485	670.0
1491.536511	670.25
1492.056481	667.25
1492.576397	669.25
1493.096258	670.75
1493.616064	670.5
1494.135816	667.25
1494.655513	669.25
1495.175155	669.75
1495.694742	666.75
1496.214274	669.0
1496.733752	667.0
1497.253175	667.0
1497.772544	672.5
1498.291858	667.5
1498.811116	669.75
1499.330321	669.5
1499.84947	674.0
1500.368565	667.75
1500.887605	668.75
1501.406591	670.0
1501.925521	667.25
1502.444397	669.0
1502.963219	668.5
1503.481985	666.5
1504.000697	673.0
1504.519355	667.0
1505.037957	666.75
1505.556505	666.0
1506.074999	667.5
1506.593437	670.5
1507.111821	669.0
1507.63015	671.0
1508.148425	669.0
1508.666645	669.25
1509.18481	666.75
1509.702921	666.0
1510.220977	667.0
1510.738979	672.5
1511.256925	667.25
1511.774817	669.75
1512.292655	670.75
1512.810438	670.75
1513.328166	670.75
1513.84584	668.75
1514.363459	673.0
1514.881023	665.0
1515.398533	672.75
1515.915988	667.0
1516.433389	665.25
1516.950734	669.5
1517.468026	666.75
1517.985263	669.0
1518.502445	668.0
1519.019572	667.25
1519.536645	669.0
1520.053664	666.75
1520.570628	667.25
1521.087537	674.25
1521.604392	670.75
1522.121192	668.75
1522.637937	670.0
1523.154628	670.75
1523.671265	671.0
1524.187847	668.75
1524.704374	671.5
1525.220847	668.75
1525.737265	668.5
1526.253629	670.75
1526.769938	669.0
1527.286192	667.0
1527.802392	671.0
1528.318538	670.25
1528.834629	668.75
1529.350666	670.25
1529.866648	671.5
1530.382575	668.75
1530.898448	667.5
1531.414266	668.75
1531.93003	667.0
1532.44574	666.0
1532.961395	669.25
1533.476995	671.25
1533.992541	669.75
1534.508033	665.5
1535.02347	668.5
1535.538852	668.75
1536.05418	670.0
1536.569454	668.25
1537.084673	667.25
1537.599837	670.5
1538.114947	667.25
1538.630003	667.25
1539.145004	666.0
1539.659951	667.75
1540.174843	667.75
1540.689681	665.25
1541.204465	668.25
1541.719194	668.25
1542.233868	668.5
1542.748488	666.0
1543.263054	670.0
1543.777565	667.5
1544.292022	667.0
1544.806424	669.0
1545.320772	665.75
1545.835066	666.25
1546.349305	672.0
1546.863489	670.0
1547.37762	666.75
1547.891696	671.0
1548.405717	668.25
1548.919684	668.5
1549.433597	669.75
1549.947455	668.75
1550.461259	670.25
1550.975009	669.0
1551.488704	665.5
1552.002345	669.0
1552.515931	672.25
1553.029463	666.0
1553.542941	668.0
1554.056364	667.0
1554.569733	667.25
1555.083048	667.25
1555.596308	665.25
1556.109514	670.25
1556.622665	664.0
1557.135762	669.25
1557.648805	670.25
1558.161794	669.75
1558.674728	668.25
1559.187608	668.75
1559.700433	666.5
1560.213205	668.0
1560.725921	671.75
1561.238584	669.0
1561.751192	667.5
1562.263746	670.0
1562.776246	671.5
1563.288691	671.0
1563.801082	668.25
1564.313419	666.75
1564.825701	666.0
1565.337929	670.75
1565.850103	670.0
1566.362223	665.5
1566.874288	667.0
1567.386299	668.0
1567.898256	669.25
1568.410158	670.5
1568.922007	669.25
1569.4338	668.0
1569.94554	669.0
1570.457226	665.75
1570.968857	668.75
1571.480434	665.5
1571.991956	667.5
1572.503425	667.25
1573.014839	669.0
1573.526199	670.0
1574.037505	668.5
1574.548756	668.75
1575.059953	665.75
1575.571096	667.0
1576.082185	668.5
1576.59322	670.0
1577.1042	666.5
1577.615126	671.75
1578.125998	666.75
1578.636816	665.75
1579.14758	665.5
1579.658289	670.25
1580.168944	667.0
1580.679545	667.5
1581.190092	667.5
1581.700585	667.75
1582.211023	669.25
1582.721407	665.5
1583.231737	668.25
1583.742013	670.0
1584.252235	665.75
1584.762403	668.5
1585.272516	667.0
1585.782575	666.75
1586.292581	668.0
1586.802532	666.0
1587.312428	667.75
1587.822271	668.75
1588.33206	667.0
1588.841794	668.5
1589.351474	667.0
1589.8611	669.0
1590.370672	669.5
1590.88019	667.5
1591.389654	665.75
1591.899064	670.0
1592.408419	668.0
