1043.018714	1001.0
1043.585098	1012.200012
1044.151424	1007.400024
1044.717692	1000.200012
1045.283903	999.2000122
1045.850056	999.0
1046.416151	1005.200012
1046.982188	1002.400024
1047.548167	998.7999878
1048.114089	1004.599976
1048.679953	998.7999878
1049.24576	1002.400024
1049.811509	1000.400024
1050.3772	996.4000244
1050.942833	989.4000244
1051.508408	985.2000122
1052.073926	997.4000244
1052.639387	996.5999756
1053.204789	994.7999878
1053.770134	985.5999756
1054.335421	985.4000244
1054.900651	1002.599976
1055.465823	993.2000122
1056.030937	999.2000122
1056.595993	982.0
1057.160992	1007.799988
1057.725934	992.0
1058.290817	1005.400024
1058.855643	986.5999756
1059.420411	989.0
1059.985122	987.7999878
1060.549775	999.0
1061.114371	996.4000244
1061.678908	998.2000122
1062.243389	992.4000244
1062.807811	990.2000122
1063.372176	980.0
1063.936483	993.0
1064.500733	987.4000244
1065.064925	987.4000244
1065.62906	993.0
1066.193137	986.7999878
1066.757156	986.0
1067.321118	983.5999756
1067.885022	984.7999878
1068.448869	985.7999878
1069.012658	980.0
1069.57639	979.2000122
1070.140063	995.5999756
1070.70368	990.2000122
1071.267239	976.5999756
1071.83074	988.2000122
1072.394184	991.5999756
1072.95757	980.2000122
1073.520899	986.0
1074.08417	993.7999878
1074.647383	991.0
1075.21054	984.2000122
1075.773638	983.5999756
1076.336679	984.4000244
1076.899663	987.0
1077.462589	987.2000122
1078.025457	977.0
1078.588268	978.2000122
1079.151022	986.4000244
1079.713718	977.5999756
1080.276356	985.2000122
1080.838937	982.0
1081.401461	983.0
1081.963927	982.5999756
1082.526336	982.0
1083.088687	987.0
1083.650981	980.2000122
1084.213217	988.0
1084.775396	974.7999878
1085.337517	985.0
1085.899581	981.4000244
1086.461587	977.0
1087.023536	972.7999878
1087.585428	988.4000244
1088.147262	974.2000122
1088.709039	971.2000122
1089.270758	973.2000122
1089.83242	979.5999756
1090.394024	979.7999878
1090.955571	987.7999878
1091.517061	986.0
1092.078493	978.7999878
1092.639868	970.5999756
1093.201185	978.7999878
1093.762445	978.4000244
1094.323648	970.0
1094.884793	974.5999756
1095.445881	986.5999756
1096.006911	968.5999756
1096.567884	965.5999756
1097.1288	975.5999756
1097.689659	984.0
1098.25046	963.0
1098.811203	975.5999756
1099.37189	975.7999878
1099.932518	969.2000122
1100.49309	973.2000122
1101.053604	974.4000244
1101.614061	975.7999878
1102.174461	967.4000244
1102.734803	960.2000122
1103.295088	968.4000244
1103.855316	967.4000244
1104.415486	965.7999878
1104.975599	971.5999756
1105.535655	965.7999878
1106.095653	961.5999756
1106.655594	963.7999878
1107.215478	969.5999756
1107.775305	967.7999878
1108.335074	969.7999878
1108.894786	970.2000122
1109.45444	960.0
1110.014038	973.0
1110.573578	969.4000244
1111.133061	975.7999878
1111.692486	964.7999878
1112.251854	961.7999878
1112.811165	958.4000244
1113.370419	973.4000244
1113.929616	961.5999756
1114.488755	971.2000122
1115.047837	965.4000244
1115.606862	967.5999756
1116.16583	969.2000122
1116.72474	976.2000122
1117.283593	966.7999878
1117.842389	963.0
1118.401128	969.2000122
1118.959809	963.2000122
1119.518433	959.2000122
1120.077	963.0
1120.63551	953.2000122
1121.193963	967.0
1121.752358	966.5999756
1122.310697	960.0
1122.868978	960.0
1123.427202	964.0
1123.985368	963.0
1124.543478	963.4000244
1125.10153	950.5999756
1125.659526	954.7999878
1126.217464	958.0
1126.775345	968.5999756
1127.333168	968.2000122
1127.890935	971.5999756
1128.448644	962.2000122
1129.006297	970.7999878
1129.563892	959.7999878
1130.12143	962.4000244
1130.678911	955.2000122
1131.236335	965.5999756
1131.793701	963.0
1132.351011	956.5999756
1132.908263	964.5999756
1133.465458	959.0
1134.022597	958.5999756
1134.579678	963.4000244
1135.136702	963.5999756
1135.693669	963.0
1136.250578	961.5999756
1136.807431	965.5999756
1137.364227	964.5999756
1137.920965	963.2000122
1138.477647	956.2000122
1139.034271	969.7999878
1139.590839	957.5999756
1140.147349	965.4000244
1140.703802	948.7999878
1141.260198	968.5999756
1141.816537	964.4000244
1142.37282	971.2000122
1142.929045	961.5999756
1143.485213	971.4000244
1144.041323	962.4000244
1144.597377	965.5999756
1145.153374	961.4000244
1145.709314	963.0
1146.265197	969.0
1146.821023	984.5999756
1147.376792	979.0
1147.932503	966.0
1148.488158	971.0
1149.043756	975.7999878
1149.599297	1014.599976
1150.154781	1116.400024
1150.710207	1074.0
1151.265577	990.5999756
1151.82089	970.4000244
1152.376146	966.7999878
1152.931345	976.4000244
1153.486487	957.7999878
1154.041572	953.4000244
1154.5966	968.4000244
1155.151571	963.4000244
1155.706485	955.2000122
1156.261342	965.0
1156.816142	964.2000122
1157.370885	959.0
1157.925572	964.2000122
1158.480201	964.7999878
1159.034774	961.4000244
1159.589289	957.7999878
1160.143748	954.0
1160.698149	963.7999878
1161.252494	955.0
1161.806782	953.4000244
1162.361013	961.5999756
1162.915187	958.4000244
1163.469304	957.2000122
1164.023364	963.7999878
1164.577368	956.2000122
1165.131314	959.5999756
1165.685204	955.7999878
1166.239036	958.2000122
1166.792812	957.5999756
1167.346531	956.2000122
1167.900193	945.7999878
1168.453798	960.2000122
1169.007347	965.2000122
1169.560838	948.2000122
1170.114273	955.2000122
1170.66765	958.2000122
1171.220971	959.2000122
1171.774235	956.0
1172.327443	950.4000244
1172.880593	957.0
1173.433687	956.4000244
1173.986723	949.0
1174.539703	963.0
1175.092626	954.2000122
1175.645493	953.7999878
1176.198302	947.5999756
1176.751055	955.0
1177.303751	951.2000122
1177.85639	965.0
1178.408972	955.5999756
1178.961498	956.7999878
1179.513966	955.7999878
1180.066378	951.2000122
1180.618733	959.7999878
1181.171032	952.0
1181.723273	959.7999878
1182.275458	959.5999756
1182.827586	956.7999878
1183.379657	947.5999756
1183.931672	954.0
1184.48363	955.2000122
1185.035531	956.2000122
1185.587375	954.5999756
1186.139162	955.7999878
1186.690893	952.2000122
1187.242567	952.4000244
1187.794184	949.7999878
1188.345745	954.2000122
1188.897249	946.7999878
1189.448696	943.0
1190.000086	953.5999756
1190.55142	958.5999756
1191.102697	948.5999756
1191.653918	954.4000244
1192.205081	944.0
1192.756188	938.5999756
1193.307238	957.2000122
1193.858232	949.4000244
1194.409169	953.4000244
1194.960049	947.0
1195.510872	954.5999756
1196.061639	950.7999878
1196.612349	941.7999878
1197.163003	948.2000122
1197.713599	948.2000122
1198.264139	945.4000244
1198.814623	946.2000122
1199.36505	954.2000122
1199.91542	940.0
1200.465734	949.7999878
1201.01599	938.4000244
1201.566191	944.2000122
1202.116334	948.7999878
1202.666421	947.7999878
1203.216452	945.2000122
1203.766425	951.2000122
1204.316343	948.5999756
1204.866203	941.0
1205.416007	945.0
1205.965754	942.7999878
1206.515445	953.0
1207.065079	943.7999878
1207.614657	948.7999878
1208.164177	940.4000244
1208.713642	936.4000244
1209.26305	950.5999756
1209.812401	949.4000244
1210.361695	945.2000122
1210.910933	946.0
1211.460115	938.0
1212.00924	949.4000244
1212.558308	959.2000122
1213.10732	950.2000122
1213.656275	937.7999878
1214.205174	945.4000244
1214.754016	938.0
1215.302801	939.2000122
1215.85153	943.0
1216.400203	940.0
1216.948819	939.0
1217.497378	941.7999878
1218.045881	937.5999756
1218.594327	947.7999878
1219.142717	932.0
1219.691051	941.7999878
1220.239327	936.2000122
1220.787548	944.2000122
1221.335712	949.2000122
1221.883819	942.5999756
1222.43187	948.5999756
1222.979864	950.5999756
1223.527802	938.2000122
1224.075683	950.4000244
1224.623508	943.5999756
1225.171277	935.4000244
1225.718989	941.0
1226.266644	939.2000122
1226.814243	943.4000244
1227.361786	939.7999878
1227.909272	933.5999756
1228.456702	950.2000122
1229.004075	942.0
1229.551392	941.7999878
1230.098652	943.2000122
1230.645856	949.2000122
1231.193003	938.5999756
1231.740094	936.4000244
1232.287129	950.2000122
1232.834107	941.5999756
1233.381029	937.2000122
1233.927894	940.0
1234.474703	947.5999756
1235.021455	948.7999878
1235.568151	932.7999878
1236.114791	942.2000122
1236.661374	941.4000244
1237.207901	928.5999756
1237.754372	943.7999878
1238.300786	938.4000244
1238.847144	933.5999756
1239.393445	944.4000244
1239.93969	942.7999878
1240.485879	934.0
1241.032011	941.0
1241.578087	936.5999756
1242.124106	941.2000122
1242.67007	938.4000244
1243.215976	941.4000244
1243.761827	946.2000122
1244.307621	936.5999756
1244.853359	937.2000122
1245.39904	944.0
1245.944665	943.4000244
1246.490234	945.4000244
1247.035746	934.7999878
1247.581203	939.2000122
1248.126602	937.4000244
1248.671946	939.4000244
1249.217233	941.7999878
1249.762464	947.2000122
1250.307638	929.2000122
1250.852757	942.5999756
1251.397819	946.5999756
1251.942824	932.7999878
1252.487774	943.0
1253.032667	933.4000244
1253.577503	936.7999878
1254.122284	941.4000244
1254.667008	935.5999756
1255.211676	940.4000244
1255.756288	939.5999756
1256.300843	947.7999878
1256.845342	940.2000122
1257.389785	943.0
1257.934172	934.0
1258.478502	942.4000244
1259.022776	934.7999878
1259.566994	939.5999756
1260.111156	943.0
1260.655261	945.5999756
1261.199311	942.2000122
1261.743304	928.5999756
1262.28724	935.7999878
1262.831121	941.0
1263.374945	939.7999878
1263.918713	950.7999878
1264.462425	954.2000122
1265.006081	959.4000244
1265.54968	947.0
1266.093223	944.4000244
1266.636711	948.7999878
1267.180141	946.0
1267.723516	934.2000122
1268.266835	932.5999756
1268.810097	934.5999756
1269.353303	932.7999878
1269.896453	938.2000122
1270.439547	931.0
1270.982584	936.0
1271.525566	929.2000122
1272.068491	928.4000244
1272.61136	936.4000244
1273.154173	925.5999756
1273.69693	936.7999878
1274.239631	928.4000244
1274.782275	938.0
1275.324864	937.7999878
1275.867396	940.7999878
1276.409872	945.0
1276.952292	935.4000244
1277.494656	936.0
1278.036964	941.4000244
1278.579215	934.5999756
1279.121411	935.2000122
1279.66355	929.2000122
1280.205634	941.7999878
1280.747661	943.7999878
1281.289632	939.2000122
1281.831547	941.2000122
1282.373406	950.2000122
1282.915209	961.7999878
1283.456955	991.4000244
1283.998646	1066.0
1284.540281	1236.800049
1285.081859	1303.0
1285.623381	1110.400024
1286.164848	993.2000122
1286.706258	953.0
1287.247612	941.0
1287.788911	946.7999878
1288.330153	936.2000122
1288.871339	936.0
1289.412469	934.0
1289.953543	936.4000244
1290.494561	930.0
1291.035523	936.7999878
1291.576428	925.7999878
1292.117278	939.0
1292.658072	926.4000244
1293.19881	926.0
1293.739492	925.7999878
1294.280118	934.4000244
1294.820687	928.2000122
1295.361201	930.7999878
1295.901659	930.7999878
1296.442061	935.2000122
1296.982406	928.4000244
1297.522696	930.4000244
1298.06293	929.2000122
1298.603108	931.5999756
1299.143229	923.4000244
1299.683295	928.5999756
1300.223305	923.5999756
1300.763259	934.7999878
1301.303157	924.0
1301.842999	926.7999878
1302.382785	927.2000122
1302.922515	917.2000122
1303.462189	931.0
1304.001807	926.5999756
1304.541369	925.4000244
1305.080875	920.0
1305.620326	920.5999756
1306.15972	919.5999756
1306.699058	927.7999878
1307.238341	928.4000244
1307.777567	932.0
1308.316738	923.7999878
1308.855853	932.5999756
1309.394912	922.4000244
1309.933915	918.7999878
1310.472862	927.4000244
1311.011753	916.7999878
1311.550588	928.5999756
1312.089367	933.5999756
1312.62809	931.2000122
1313.166758	931.2000122
1313.70537	927.0
1314.243925	928.7999878
1314.782425	922.2000122
1315.320869	930.2000122
1315.859257	925.2000122
1316.397589	921.4000244
1316.935866	929.7999878
1317.474086	919.4000244
1318.012251	930.7999878
1318.55036	932.2000122
1319.088413	922.4000244
1319.62641	923.2000122
1320.164351	921.0
1320.702236	927.0
1321.240066	926.2000122
1321.777839	910.5999756
1322.315557	927.7999878
1322.853219	919.0
1323.390826	922.5999756
1323.928376	928.7999878
1324.465871	919.2000122
1325.003309	918.7999878
1325.540692	920.5999756
1326.07802	929.4000244
1326.615291	929.4000244
1327.152506	921.5999756
1327.689666	921.0
1328.22677	923.5999756
1328.763818	906.7999878
1329.300811	929.0
1329.837747	922.0
1330.374628	927.0
1330.911453	919.2000122
1331.448222	919.7999878
1331.984936	917.2000122
1332.521594	916.4000244
1333.058196	922.0
1333.594742	916.0
1334.131232	919.5999756
1334.667667	922.0
1335.204046	913.0
1335.740369	923.2000122
1336.276637	913.5999756
1336.812848	922.5999756
1337.349004	917.7999878
1337.885105	921.0
1338.421149	924.4000244
1338.957138	917.5999756
1339.493071	919.2000122
1340.028949	918.4000244
1340.56477	920.5999756
1341.100536	925.4000244
1341.636246	919.5999756
1342.171901	916.0
1342.7075	918.2000122
1343.243043	916.5999756
1343.77853	918.0
1344.313962	913.5999756
1344.849338	921.7999878
1345.384659	912.4000244
1345.919923	915.5999756
1346.455133	911.4000244
1346.990286	908.0
1347.525384	929.0
1348.060426	925.0
1348.595412	918.2000122
1349.130343	926.4000244
1349.665218	930.7999878
1350.200037	921.5999756
1350.734801	919.5999756
1351.269509	913.2000122
1351.804162	914.5999756
1352.338758	917.7999878
1352.8733	915.2000122
1353.407785	922.7999878
1353.942215	914.4000244
1354.476589	922.7999878
1355.010908	924.0
1355.545171	915.2000122
1356.079379	921.4000244
1356.61353	921.7999878
1357.147627	910.2000122
1357.681667	924.0
1358.215652	916.2000122
1358.749582	919.5999756
1359.283456	918.5999756
1359.817274	921.4000244
1360.351037	918.5999756
1360.884744	920.4000244
1361.418395	915.7999878
1361.951991	922.0
1362.485531	909.0
1363.019016	925.0
1363.552445	911.7999878
1364.085819	916.7999878
1364.619137	913.0
1365.1524	919.2000122
1365.685607	915.4000244
1366.218758	917.0
1366.751854	912.0
1367.284894	919.7999878
1367.817879	904.0
1368.350808	918.2000122
1368.883682	916.0
1369.4165	918.0
1369.949263	930.2000122
1370.48197	926.0
1371.014622	918.2000122
1371.547218	922.0
1372.079758	917.0
1372.612244	917.4000244
1373.144673	917.0
1373.677047	907.4000244
1374.209366	918.2000122
1374.741629	914.4000244
1375.273836	928.4000244
1375.805989	909.4000244
1376.338085	919.4000244
1376.870126	913.7999878
1377.402112	908.5999756
1377.934042	915.7999878
1378.465917	915.7999878
1378.997736	914.7999878
1379.5295	918.2000122
1380.061208	919.7999878
1380.592861	928.7999878
1381.124459	917.2000122
1381.656	913.7999878
1382.187487	917.5999756
1382.718918	910.7999878
1383.250294	915.5999756
1383.781614	922.7999878
1384.312879	913.5999756
1384.844088	922.7999878
1385.375242	927.0
1385.90634	932.7999878
1386.437383	950.2000122
1386.968371	997.7999878
1387.499303	1114.599976
1388.03018	1508.400024
1388.561001	1581.400024
1389.091767	1124.400024
1389.622478	975.4000244
1390.153133	941.2000122
1390.683733	929.2000122
1391.214277	921.4000244
1391.744766	918.7999878
1392.2752	920.4000244
1392.805578	914.2000122
1393.335901	918.4000244
1393.866168	916.0
1394.396381	911.4000244
1394.926537	909.2000122
1395.456639	905.7999878
1395.986685	913.0
1396.516675	912.7999878
1397.046611	910.7999878
1397.576491	911.5999756
1398.106315	915.7999878
1398.636084	913.4000244
1399.165798	916.5999756
1399.695457	914.4000244
1400.22506	916.5999756
1400.754608	912.4000244
1401.284101	910.0
1401.813538	916.5999756
1402.34292	906.2000122
1402.872247	911.7999878
1403.401518	919.4000244
1403.930734	902.7999878
1404.459895	909.4000244
1404.989	909.5999756
1405.51805	902.7999878
1406.047045	918.4000244
1406.575984	905.4000244
1407.104869	914.4000244
1407.633697	916.7999878
1408.162471	914.7999878
1408.691189	937.2000122
1409.219852	952.0
1409.74846	960.5999756
1410.277013	937.5999756
1410.80551	919.4000244
1411.333952	905.4000244
1411.862339	914.0
1412.39067	912.5999756
1412.918946	903.7999878
1413.447167	909.2000122
1413.975333	918.5999756
1414.503444	911.5999756
1415.031499	907.5999756
1415.559499	919.2000122
1416.087444	913.7999878
1416.615333	910.0
1417.143167	904.4000244
1417.670947	907.4000244
1418.19867	902.5999756
1418.726339	912.4000244
1419.253952	910.0
1419.781511	903.2000122
1420.309014	905.2000122
1420.836461	904.0
1421.363854	908.5999756
1421.891191	909.7999878
1422.418474	908.7999878
1422.945701	897.7999878
1423.472872	910.5999756
1423.999989	902.2000122
1424.52705	904.4000244
1425.054057	907.5999756
1425.581008	908.5999756
1426.107904	916.0
1426.634745	904.4000244
1427.16153	910.7999878
1427.688261	910.2000122
1428.214936	905.5999756
1428.741556	915.4000244
1429.268121	908.4000244
1429.794631	906.0
1430.321085	909.0
1430.847485	909.7999878
1431.373829	904.7999878
1431.900118	906.2000122
1432.426353	901.4000244
1432.952532	909.0
1433.478655	908.5999756
1434.004724	918.4000244
1434.530738	904.7999878
1435.056696	905.4000244
1435.5826	907.2000122
1436.108448	909.0
1436.634241	909.7999878
1437.159979	901.2000122
1437.685662	899.2000122
1438.21129	902.0
1438.736863	906.4000244
1439.262381	900.4000244
1439.787843	906.2000122
1440.313251	902.5999756
1440.838603	904.0
1441.3639	903.4000244
1441.889143	910.0
1442.41433	908.7999878
1442.939462	898.4000244
1443.464539	900.5999756
1443.989561	904.4000244
1444.514528	899.0
1445.03944	908.0
1445.564297	908.0
1446.089099	905.4000244
1446.613846	909.0
1447.138537	902.4000244
1447.663174	900.5999756
1448.187756	903.2000122
1448.712282	902.7999878
1449.236754	903.0
1449.761171	898.0
1450.285532	903.7999878
1450.809839	894.2000122
1451.33409	905.2000122
1451.858287	899.4000244
1452.382428	900.0
1452.906515	903.0
1453.430546	901.5999756
1453.954523	898.0
1454.478444	900.2000122
1455.002311	904.0
1455.526123	896.2000122
1456.049879	901.2000122
1456.573581	895.4000244
1457.097227	901.0
1457.620819	904.4000244
1458.144356	903.2000122
1458.667837	907.5999756
1459.191264	890.4000244
1459.714636	902.0
1460.237952	896.7999878
1460.761214	897.0
1461.284421	905.7999878
1461.807573	905.0
1462.33067	899.2000122
1462.853712	905.2000122
1463.376699	896.4000244
1463.899632	910.2000122
1464.422509	898.7999878
1464.945331	900.2000122
1465.468099	900.2000122
1465.990811	896.2000122
1466.513469	899.2000122
1467.036071	904.2000122
1467.558619	909.4000244
1468.081112	892.4000244
1468.60355	899.5999756
1469.125933	894.0
1469.648261	898.7999878
1470.170534	904.4000244
1470.692752	900.2000122
1471.214916	899.4000244
1471.737024	892.5999756
1472.259078	893.4000244
1472.781077	902.7999878
1473.303021	897.4000244
1473.82491	900.0
1474.346744	897.7999878
1474.868523	900.0
1475.390248	896.7999878
1475.911917	893.2000122
1476.433532	904.7999878
1476.955092	907.7999878
1477.476597	897.2000122
1477.998047	901.5999756
1478.519442	897.2000122
1479.040783	909.2000122
1479.562068	895.2000122
1480.083299	902.5999756
1480.604475	895.2000122
1481.125596	893.7999878
1481.646663	892.4000244
1482.167674	897.5999756
1482.688631	887.0
1483.209533	895.7999878
1483.73038	897.4000244
1484.251172	892.2000122
1484.771909	892.2000122
1485.292592	896.2000122
1485.81322	898.5999756
1486.333793	892.7999878
1486.854311	891.5999756
1487.374775	905.7999878
1487.895183	892.5999756
1488.415537	893.7999878
1488.935836	896.0
1489.456081	896.7999878
1489.97627	898.0
1490.496405	899.2000122
1491.016485	897.2000122
1491.536511	893.7999878
1492.056481	899.7999878
1492.576397	893.7999878
1493.096258	896.0
1493.616064	896.0
1494.135816	895.2000122
1494.655513	894.5999756
1495.175155	893.4000244
1495.694742	900.2000122
1496.214274	893.4000244
1496.733752	895.2000122
1497.253175	891.4000244
1497.772544	893.2000122
1498.291858	891.4000244
1498.811116	892.0
1499.330321	896.7999878
1499.84947	896.5999756
1500.368565	888.2000122
1500.887605	895.4000244
1501.406591	895.4000244
1501.925521	889.5999756
1502.444397	896.4000244
1502.963219	889.0
1503.481985	895.5999756
1504.000697	896.7999878
1504.519355	895.0
1505.037957	893.2000122
1505.556505	892.5999756
1506.074999	889.0
1506.593437	888.4000244
1507.111821	888.7999878
1507.63015	897.0
1508.148425	892.0
1508.666645	896.4000244
1509.18481	901.2000122
1509.702921	898.0
1510.220977	897.5999756
1510.738979	898.7999878
1511.256925	886.0
1511.774817	896.7999878
1512.292655	888.4000244
1512.810438	888.5999756
1513.328166	885.4000244
1513.84584	889.2000122
1514.363459	895.5999756
1514.881023	882.5999756
1515.398533	896.2000122
1515.915988	887.4000244
1516.433389	896.0
1516.950734	893.7999878
1517.468026	886.0
1517.985263	888.5999756
1518.502445	892.7999878
1519.019572	889.0
1519.536645	886.7999878
1520.053664	889.7999878
1520.570628	890.4000244
1521.087537	895.0
1521.604392	890.4000244
1522.121192	892.7999878
1522.637937	899.4000244
1523.154628	891.4000244
1523.671265	891.5999756
1524.187847	890.5999756
1524.704374	891.2000122
1525.220847	895.4000244
1525.737265	891.2000122
1526.253629	892.4000244
1526.769938	892.4000244
1527.286192	885.5999756
1527.802392	887.7999878
1528.318538	897.4000244
1528.834629	893.0
1529.350666	896.2000122
1529.866648	894.0
1530.382575	892.0
1530.898448	893.0
1531.414266	889.5999756
1531.93003	895.2000122
1532.44574	896.2000122
1532.961395	889.2000122
1533.476995	895.7999878
1533.992541	893.4000244
1534.508033	887.5999756
1535.02347	887.0
1535.538852	891.0
1536.05418	890.2000122
1536.569454	885.2000122
1537.084673	890.5999756
1537.599837	893.4000244
1538.114947	899.2000122
1538.630003	886.5999756
1539.145004	887.2000122
1539.659951	882.7999878
1540.174843	890.0
1540.689681	892.4000244
1541.204465	891.2000122
1541.719194	890.4000244
1542.233868	884.2000122
1542.748488	893.2000122
1543.263054	890.7999878
1543.777565	889.5999756
1544.292022	894.2000122
1544.806424	887.7999878
1545.320772	898.7999878
1545.835066	894.2000122
1546.349305	892.2000122
1546.863489	892.5999756
1547.37762	889.5999756
1547.891696	894.2000122
1548.405717	892.2000122
1548.919684	898.7999878
1549.433597	886.2000122
1549.947455	894.0
1550.461259	878.5999756
1550.975009	891.2000122
1551.488704	887.2000122
1552.002345	892.7999878
1552.515931	895.5999756
1553.029463	886.7999878
1553.542941	894.4000244
1554.056364	896.2000122
1554.569733	886.2000122
1555.083048	886.0
1555.596308	888.2000122
1556.109514	890.5999756
1556.622665	891.7999878
1557.135762	895.0
1557.648805	893.7999878
1558.161794	898.2000122
1558.674728	890.4000244
1559.187608	889.0
1559.700433	891.2000122
1560.213205	899.0
1560.725921	899.0
1561.238584	891.2000122
1561.751192	891.4000244
1562.263746	895.4000244
1562.776246	893.7999878
1563.288691	884.0
1563.801082	887.5999756
1564.313419	900.2000122
1564.825701	886.0
1565.337929	895.4000244
1565.850103	890.0
1566.362223	884.4000244
1566.874288	898.0
1567.386299	890.0
1567.898256	886.7999878
1568.410158	887.5999756
1568.922007	882.7999878
1569.4338	889.4000244
1569.94554	893.2000122
1570.457226	889.4000244
1570.968857	883.2000122
1571.480434	884.5999756
1571.991956	890.0
1572.503425	891.5999756
1573.014839	889.4000244
1573.526199	892.5999756
1574.037505	891.4000244
1574.548756	891.2000122
1575.059953	893.0
1575.571096	896.2000122
1576.082185	891.7999878
1576.59322	883.4000244
1577.1042	890.5999756
1577.615126	881.5999756
1578.125998	883.2000122
1578.636816	891.4000244
1579.14758	893.5999756
1579.658289	890.4000244
1580.168944	899.2000122
1580.679545	892.2000122
1581.190092	889.2000122
1581.700585	893.7999878
1582.211023	881.0
1582.721407	890.5999756
1583.231737	893.0
1583.742013	890.5999756
1584.252235	890.0
1584.762403	882.2000122
1585.272516	879.7999878
1585.782575	888.5999756
1586.292581	884.0
1586.802532	884.5999756
1587.312428	885.0
1587.822271	883.7999878
1588.33206	885.2000122
1588.841794	886.2000122
1589.351474	895.5999756
1589.8611	892.0
1590.370672	888.7999878
1590.88019	876.2000122
1591.389654	885.0
1591.899064	882.5999756
1592.408419	892.2000122
