1042.452273	706.0
1043.018714	705.4000244
1043.585098	700.4000244
1044.151424	701.2000122
1044.717692	701.2000122
1045.283903	701.0
1045.850056	703.7999878
1046.416151	703.2000122
1046.982188	702.7999878
1047.548167	703.7999878
1048.114089	701.4000244
1048.679953	699.2000122
1049.24576	700.4000244
1049.811509	699.2000122
1050.3772	699.5999756
1050.942833	699.5999756
1051.508408	702.7999878
1052.073926	696.7999878
1052.639387	699.5999756
1053.204789	701.0
1053.770134	699.5999756
1054.335421	696.4000244
1054.900651	699.2000122
1055.465823	696.4000244
1056.030937	696.0
1056.595993	698.7999878
1057.160992	697.4000244
1057.725934	694.5999756
1058.290817	695.4000244
1058.855643	698.0
1059.420411	694.0
1059.985122	697.2000122
1060.549775	695.2000122
1061.114371	695.0
1061.678908	697.0
1062.243389	696.4000244
1062.807811	696.5999756
1063.372176	694.0
1063.936483	701.0
1064.500733	698.4000244
1065.064925	694.7999878
1065.62906	695.0
1066.193137	697.4000244
1066.757156	699.2000122
1067.321118	700.0
1068.448869	711.4000244
1069.012658	696.5999756
1069.57639	696.4000244
1070.140063	700.5999756
1070.70368	697.2000122
1071.267239	693.5999756
1071.83074	695.0
1072.394184	697.5999756
1072.95757	695.2000122
1073.520899	696.4000244
1074.08417	699.0
1074.647383	692.5999756
1075.21054	694.2000122
1075.773638	696.2000122
1076.336679	694.5999756
1076.899663	695.5999756
1077.462589	698.4000244
1078.025457	695.2000122
1078.588268	697.5999756
1079.151022	698.0
1079.713718	696.0
1080.276356	696.5999756
1080.838937	697.2000122
1081.401461	695.0
1081.963927	697.5999756
1082.526336	700.4000244
1083.088687	694.5999756
1083.650981	695.7999878
1084.213217	694.0
1084.775396	694.2000122
1085.337517	695.5999756
1085.899581	696.5999756
1086.461587	697.5999756
1087.023536	690.7999878
1087.585428	697.5999756
1088.147262	693.5999756
1088.709039	696.7999878
1089.270758	694.4000244
1089.83242	694.4000244
1090.394024	693.2000122
1090.955571	692.5999756
1091.517061	694.2000122
1092.078493	694.2000122
1092.639868	698.2000122
1093.201185	692.5999756
1093.762445	696.5999756
1094.323648	693.2000122
1094.884793	696.4000244
1095.445881	698.5999756
1096.006911	694.0
1096.567884	694.7999878
1097.1288	700.5999756
1097.689659	694.5999756
1098.25046	691.4000244
1098.811203	694.4000244
1099.37189	695.5999756
1099.932518	696.5999756
1100.49309	695.0
1101.053604	697.0
1101.614061	693.5999756
1102.174461	692.4000244
1102.734803	696.2000122
1103.295088	691.0
1103.855316	694.2000122
1104.415486	691.4000244
1104.975599	694.2000122
1105.535655	693.2000122
1106.095653	695.2000122
1106.655594	693.0
1107.215478	697.2000122
1107.775305	692.5999756
1108.335074	694.2000122
1108.894786	693.0
1109.45444	696.0
1110.014038	694.5999756
1110.573578	694.7999878
1111.133061	695.0
1111.692486	691.0
1112.251854	694.5999756
1112.811165	693.2000122
1113.370419	695.4000244
1113.929616	692.5999756
1114.488755	694.2000122
1115.047837	694.0
1115.606862	695.5999756
1116.16583	695.7999878
1116.72474	696.4000244
1117.283593	692.0
1117.842389	693.2000122
1118.401128	694.7999878
1118.959809	691.5999756
1119.518433	693.7999878
1120.077	697.4000244
1120.63551	692.0
1121.193963	691.7999878
1121.752358	695.2000122
1122.310697	694.2000122
1122.868978	694.5999756
1123.427202	693.2000122
1123.985368	693.0
1124.543478	693.4000244
1125.10153	693.2000122
1125.659526	692.0
1126.217464	693.7999878
1126.775345	697.5999756
1127.333168	694.7999878
1127.890935	695.5999756
1128.448644	693.4000244
1129.006297	695.4000244
1129.563892	693.0
1130.12143	694.0
1130.678911	695.0
1131.236335	692.7999878
1131.793701	692.2000122
1132.351011	695.2000122
1132.908263	694.4000244
1133.465458	695.2000122
1134.022597	693.2000122
1134.579678	694.4000244
1135.136702	697.5999756
1135.693669	696.0
1136.250578	698.0
1136.807431	699.0
1137.364227	691.2000122
1137.920965	697.2000122
1138.477647	695.5999756
1139.034271	696.2000122
1139.590839	693.5999756
1140.147349	692.5999756
1140.703802	693.2000122
1141.260198	695.0
1141.816537	696.4000244
1142.37282	695.0
1142.929045	698.4000244
1143.485213	698.4000244
1144.041323	697.2000122
1144.597377	698.4000244
1145.153374	691.4000244
1145.709314	695.7999878
1146.265197	697.5999756
1146.821023	699.0
1147.376792	701.0
1147.932503	702.0
1148.488158	696.0
1149.043756	699.4000244
1149.599297	702.5999756
1150.154781	720.2000122
1150.710207	750.7999878
1151.265577	726.4000244
1151.82089	704.0
1152.376146	695.0
1152.931345	696.7999878
1153.486487	695.0
1154.041572	693.0
1154.5966	694.0
1155.151571	693.7999878
1155.706485	696.5999756
1156.261342	697.0
1156.816142	693.4000244
1157.370885	696.5999756
1157.925572	691.5999756
1158.480201	696.0
1159.034774	693.5999756
1159.589289	695.4000244
1160.143748	696.5999756
1160.698149	696.7999878
1161.252494	693.7999878
1161.806782	694.5999756
1162.361013	693.7999878
1162.915187	696.0
1163.469304	697.4000244
1164.023364	695.0
1164.577368	691.7999878
1165.131314	696.4000244
1165.685204	689.7999878
1166.239036	691.4000244
1166.792812	695.7999878
1167.346531	692.7999878
1167.900193	693.5999756
1168.453798	696.5999756
1169.007347	694.5999756
1169.560838	698.2000122
1170.114273	696.7999878
1170.66765	695.5999756
1171.220971	695.2000122
1171.774235	694.7999878
1172.327443	694.0
1172.880593	691.5999756
1173.433687	692.7999878
1173.986723	696.7999878
1174.539703	697.5999756
1175.092626	696.4000244
1175.645493	692.2000122
1176.198302	693.2000122
1176.751055	695.0
1177.303751	692.0
1177.85639	696.7999878
1178.408972	691.0
1178.961498	695.4000244
1179.513966	692.5999756
1180.066378	694.4000244
1180.618733	693.4000244
1181.171032	695.2000122
1181.723273	693.0
1182.275458	693.4000244
1182.827586	694.2000122
1183.379657	690.5999756
1183.931672	693.7999878
1184.48363	694.2000122
1185.035531	694.7999878
1185.587375	693.7999878
1186.139162	691.7999878
1186.690893	696.2000122
1187.242567	693.4000244
1187.794184	690.0
1188.345745	690.4000244
1188.897249	691.7999878
1189.448696	696.2000122
1190.000086	691.7999878
1190.55142	692.7999878
1191.102697	692.2000122
1191.653918	692.2000122
1192.205081	691.7999878
1192.756188	693.5999756
1193.307238	709.7999878
1193.858232	696.2000122
1194.409169	691.7999878
1194.960049	697.0
1195.510872	691.5999756
1196.061639	694.7999878
1196.612349	696.7999878
1197.163003	696.0
1197.713599	697.5999756
1198.264139	689.7999878
1198.814623	693.5999756
1199.36505	695.5999756
1199.91542	695.4000244
1200.465734	691.7999878
1201.01599	692.4000244
1201.566191	693.0
1202.116334	695.0
1202.666421	693.5999756
1203.216452	693.2000122
1203.766425	693.5999756
1204.316343	695.0
1204.866203	698.7999878
1205.416007	694.7999878
1205.965754	693.0
1206.515445	691.4000244
1207.065079	696.7999878
1207.614657	695.2000122
1208.164177	698.4000244
1208.713642	696.7999878
1209.26305	694.5999756
1209.812401	694.4000244
1210.361695	693.2000122
1210.910933	692.4000244
1211.460115	692.5999756
1212.00924	695.5999756
1212.558308	695.0
1213.10732	694.5999756
1213.656275	690.0
1214.205174	694.5999756
1214.754016	696.7999878
1215.302801	691.7999878
1215.85153	693.7999878
1216.400203	695.4000244
1216.948819	693.5999756
1217.497378	692.7999878
1218.045881	695.7999878
1218.594327	693.7999878
1219.142717	693.7999878
1219.691051	694.4000244
1220.239327	694.5999756
1220.787548	693.4000244
1221.335712	691.2000122
1221.883819	695.4000244
1222.43187	696.4000244
1222.979864	694.2000122
1223.527802	694.0
1224.075683	694.4000244
1224.623508	695.2000122
1225.171277	698.5999756
1225.718989	691.2000122
1226.266644	692.0
1226.814243	692.4000244
1227.361786	693.7999878
1227.909272	692.7999878
1228.456702	694.2000122
1229.004075	693.0
1229.551392	698.0
1230.098652	694.5999756
1230.645856	690.5999756
1231.193003	692.7999878
1231.740094	693.0
1232.287129	692.2000122
1232.834107	694.7999878
1233.381029	691.2000122
1233.927894	694.4000244
1234.474703	694.7999878
1235.021455	691.5999756
1235.568151	691.4000244
1236.114791	696.7999878
1236.661374	692.4000244
1237.207901	696.7999878
1237.754372	693.2000122
1238.300786	694.5999756
1238.847144	692.2000122
1239.393445	695.7999878
1239.93969	691.0
1240.485879	693.0
1241.032011	695.7999878
1241.578087	695.7999878
1242.124106	692.0
1242.67007	699.0
1243.215976	696.0
1243.761827	691.4000244
1244.307621	695.2000122
1244.853359	694.0
1245.39904	694.7999878
1245.944665	693.2000122
1246.490234	692.0
1247.035746	693.7999878
1247.581203	694.7999878
1248.126602	694.2000122
1248.671946	692.4000244
1249.217233	696.0
1249.762464	692.7999878
1250.307638	692.2000122
1250.852757	693.0
1251.397819	694.0
1251.942824	694.5999756
1252.487774	696.0
1253.032667	693.7999878
1253.577503	692.0
1254.122284	695.4000244
1254.667008	696.4000244
1255.211676	691.4000244
1255.756288	695.2000122
1256.300843	697.4000244
1256.845342	694.7999878
1257.389785	693.4000244
1257.934172	695.4000244
1258.478502	692.5999756
1259.022776	693.0
1259.566994	696.0
1260.111156	704.4000244
1260.655261	693.7999878
1261.199311	695.5999756
1261.743304	691.7999878
1262.28724	696.2000122
1262.831121	695.2000122
1263.374945	697.4000244
1263.918713	697.7999878
1264.462425	700.4000244
1265.006081	719.4000244
1265.54968	715.7999878
1266.093223	703.4000244
1266.636711	697.7999878
1267.180141	696.2000122
1267.723516	694.0
1268.266835	692.5999756
1268.810097	697.0
1269.353303	693.2000122
1269.896453	696.2000122
1270.439547	695.7999878
1270.982584	695.5999756
1271.525566	690.7999878
1272.068491	690.7999878
1272.61136	696.4000244
1273.154173	691.5999756
1273.69693	695.4000244
1274.239631	694.5999756
1274.782275	694.4000244
1275.324864	694.0
1275.867396	695.4000244
1276.409872	694.5999756
1276.952292	692.4000244
1277.494656	692.7999878
1278.036964	692.5999756
1278.579215	694.7999878
1279.121411	691.2000122
1279.66355	698.0
1280.205634	697.5999756
1280.747661	693.5999756
1281.289632	695.4000244
1281.831547	695.2000122
1282.373406	694.0
1282.915209	701.0
1283.456955	700.5999756
1283.998646	708.5999756
1284.540281	733.5999756
1285.081859	874.5999756
1285.623381	1066.800049
1286.164848	835.0
1286.706258	721.7999878
1287.247612	706.7999878
1287.788911	697.5999756
1288.330153	699.0
1288.871339	697.4000244
1289.412469	696.2000122
1289.953543	693.2000122
1290.494561	696.2000122
1291.035523	695.7999878
1291.576428	694.4000244
1292.117278	695.4000244
1292.658072	692.0
1293.19881	691.5999756
1293.739492	693.5999756
1294.280118	696.4000244
1294.820687	693.7999878
1295.361201	694.5999756
1295.901659	695.7999878
1296.442061	691.0
1296.982406	692.2000122
1297.522696	695.0
1298.06293	696.2000122
1298.603108	696.4000244
1299.143229	691.5999756
1299.683295	694.5999756
1300.223305	691.0
1300.763259	695.0
1301.303157	690.5999756
1301.842999	690.7999878
1302.382785	690.7999878
1302.922515	692.7999878
1303.462189	692.0
1304.001807	694.0
1304.541369	693.7999878
1305.080875	697.4000244
1305.620326	691.7999878
1306.15972	694.7999878
1306.699058	691.5999756
1307.238341	693.2000122
1307.777567	691.0
1308.316738	695.5999756
1308.855853	697.2000122
1309.394912	694.5999756
1309.933915	697.4000244
1310.472862	691.4000244
1311.011753	691.4000244
1311.550588	696.0
1312.089367	694.4000244
1312.62809	695.5999756
1313.166758	693.2000122
1313.70537	690.5999756
1314.243925	695.4000244
1314.782425	688.4000244
1315.320869	692.0
1315.859257	699.7999878
1316.397589	695.4000244
1316.935866	695.0
1317.474086	696.4000244
1318.012251	691.7999878
1318.55036	691.2000122
1319.088413	691.4000244
1319.62641	693.7999878
1320.164351	690.7999878
1320.702236	697.0
1321.240066	696.0
1321.777839	694.4000244
1322.315557	693.7999878
1322.853219	691.2000122
1323.390826	694.5999756
1323.928376	697.0
1324.465871	693.7999878
1325.003309	694.0
1325.540692	693.2000122
1326.07802	693.4000244
1326.615291	693.7999878
1327.152506	695.4000244
1327.689666	693.2000122
1328.22677	697.0
1328.763818	697.4000244
1329.300811	693.4000244
1329.837747	691.0
1330.374628	692.4000244
1330.911453	694.7999878
1331.448222	693.5999756
1331.984936	693.4000244
1332.521594	693.4000244
1333.058196	693.7999878
1333.594742	695.2000122
1334.131232	694.4000244
1334.667667	696.4000244
1335.204046	699.5999756
1335.740369	694.0
1336.276637	693.7999878
1336.812848	691.2000122
1337.349004	692.2000122
1337.885105	691.7999878
1338.421149	692.4000244
1338.957138	694.2000122
1339.493071	691.0
1340.028949	693.2000122
1340.56477	693.4000244
1341.100536	695.4000244
1341.636246	698.4000244
1342.171901	694.4000244
1342.7075	691.7999878
1343.243043	695.2000122
1343.77853	690.0
1344.313962	694.2000122
1344.849338	695.2000122
1345.384659	695.5999756
1345.919923	694.0
1346.455133	695.2000122
1346.990286	697.0
1347.525384	695.7999878
1348.060426	693.7999878
1348.595412	693.0
1349.130343	689.0
1349.665218	693.7999878
1350.200037	689.7999878
1350.734801	691.5999756
1351.269509	689.4000244
1351.804162	694.4000244
1352.338758	695.5999756
1352.8733	697.7999878
1353.407785	692.7999878
1353.942215	693.7999878
1354.476589	692.7999878
1355.010908	695.2000122
1355.545171	692.2000122
1356.079379	695.4000244
1356.61353	692.4000244
1357.147627	697.4000244
1357.681667	695.7999878
1358.215652	695.0
1358.749582	697.7999878
1359.283456	690.5999756
1359.817274	688.7999878
1360.351037	691.0
1360.884744	693.7999878
1361.418395	690.5999756
1361.951991	694.5999756
1362.485531	691.7999878
1363.019016	692.5999756
1363.552445	697.4000244
1364.085819	696.2000122
1364.619137	691.0
1365.1524	694.2000122
1365.685607	695.0
1366.218758	692.4000244
1366.751854	694.0
1367.284894	697.4000244
1367.817879	693.0
1368.350808	695.7999878
1368.883682	694.7999878
1369.4165	697.5999756
1369.949263	694.5999756
1370.48197	703.2000122
1371.014622	695.0
1371.547218	693.2000122
1372.079758	693.0
1372.612244	693.4000244
1373.144673	691.4000244
1373.677047	691.7999878
1374.209366	694.5999756
1374.741629	694.0
1375.273836	694.7999878
1375.805989	689.7999878
1376.338085	696.4000244
1376.870126	692.7999878
1377.402112	691.5999756
1377.934042	691.4000244
1378.465917	696.5999756
1378.997736	693.4000244
1379.5295	695.5999756
1380.061208	693.2000122
1380.592861	690.2000122
1381.124459	689.4000244
1381.656	691.7999878
1382.187487	693.7999878
1382.718918	696.7999878
1383.250294	693.2000122
1383.781614	696.0
1384.312879	700.2000122
1384.844088	696.7999878
1385.375242	698.7999878
1385.90634	696.4000244
1386.437383	702.7999878
1386.968371	702.5999756
1387.499303	720.2000122
1388.03018	811.2000122
1388.561001	1259.599976
1389.091767	1106.800049
1389.622478	753.5999756
1390.153133	712.4000244
1390.683733	700.2000122
1391.214277	698.2000122
1391.744766	700.4000244
1392.2752	695.4000244
1392.805578	696.0
1393.335901	694.7999878
1393.866168	698.0
1394.396381	697.7999878
1394.926537	693.0
1395.456639	691.5999756
1395.986685	694.7999878
1396.516675	694.0
1397.046611	695.4000244
1397.576491	691.7999878
1398.106315	693.0
1398.636084	692.2000122
1399.165798	693.7999878
1399.695457	693.7999878
1400.22506	690.5999756
1400.754608	694.7999878
1401.284101	698.2000122
1401.813538	694.5999756
1402.34292	698.2000122
1402.872247	692.5999756
1403.401518	694.2000122
1403.930734	695.5999756
1404.459895	691.7999878
1404.989	693.4000244
1405.51805	694.7999878
1406.047045	694.5999756
1406.575984	695.0
1407.104869	695.5999756
1407.633697	694.2000122
1408.162471	697.4000244
1408.691189	695.0
1409.219852	706.7999878
1409.74846	734.5999756
1410.277013	738.5999756
1410.80551	709.0
1411.333952	699.2000122
1411.862339	696.5999756
1412.39067	695.0
1412.918946	696.4000244
1413.447167	695.0
1413.975333	694.4000244
1414.503444	698.5999756
1415.031499	697.7999878
1415.559499	699.7999878
1416.087444	695.0
1416.615333	694.2000122
1417.143167	695.2000122
1417.670947	698.4000244
1418.19867	691.7999878
1418.726339	694.4000244
1419.253952	692.0
1419.781511	693.0
1420.309014	691.7999878
1420.836461	692.7999878
1421.363854	693.5999756
1421.891191	692.0
1422.418474	695.5999756
1422.945701	695.4000244
1423.472872	689.5999756
1423.999989	694.4000244
1424.52705	697.4000244
1425.054057	693.4000244
1425.581008	693.5999756
1426.107904	695.4000244
1426.634745	696.0
1427.16153	695.5999756
1427.688261	692.4000244
1428.214936	695.0
1428.741556	693.0
1429.268121	701.4000244
1429.794631	693.0
1430.321085	693.7999878
1430.847485	696.4000244
1431.373829	694.4000244
1431.900118	695.0
1432.426353	692.0
1432.952532	696.0
1433.478655	691.0
1434.004724	693.4000244
1434.530738	691.7999878
1435.056696	695.4000244
1435.5826	692.4000244
1436.108448	693.2000122
1436.634241	698.7999878
1437.159979	694.4000244
1437.685662	693.5999756
1438.21129	692.7999878
1438.736863	696.2000122
1439.262381	690.4000244
1439.787843	697.2000122
1440.313251	694.5999756
1440.838603	689.2000122
1441.3639	693.4000244
1441.889143	695.7999878
1442.41433	694.0
1442.939462	692.5999756
1443.464539	689.2000122
1443.989561	690.0
1444.514528	694.0
1445.03944	693.7999878
1445.564297	692.4000244
1446.089099	689.7999878
1446.613846	692.7999878
1447.138537	695.7999878
1447.663174	693.2000122
1448.187756	693.0
1448.712282	696.0
1449.236754	693.0
1449.761171	691.7999878
1450.285532	690.4000244
1450.809839	690.5999756
1451.33409	693.0
1451.858287	692.7999878
1452.382428	693.7999878
1452.906515	696.5999756
1453.430546	692.7999878
1453.954523	691.5999756
1454.478444	694.5999756
1455.002311	695.2000122
1455.526123	692.5999756
1456.049879	693.7999878
1456.573581	695.7999878
1457.097227	694.7999878
1457.620819	693.2000122
1458.144356	696.4000244
1458.667837	691.5999756
1459.191264	692.5999756
1459.714636	698.0
1460.237952	692.7999878
1460.761214	693.4000244
1461.284421	695.0
1461.807573	692.0
1462.33067	691.7999878
1462.853712	691.2000122
1463.376699	694.2000122
1463.899632	695.7999878
1464.422509	691.5999756
1464.945331	698.4000244
1465.468099	691.5999756
1465.990811	693.7999878
1466.513469	692.5999756
1467.036071	690.5999756
1467.558619	692.5999756
1468.081112	689.5999756
1468.60355	693.7999878
1469.125933	694.2000122
1469.648261	694.5999756
1470.170534	696.5999756
1470.692752	691.7999878
1471.214916	696.4000244
1471.737024	695.0
1472.259078	692.2000122
1472.781077	692.0
1473.303021	691.2000122
1473.82491	694.4000244
1474.346744	692.5999756
1474.868523	691.2000122
1475.390248	692.5999756
1475.911917	694.5999756
1476.433532	693.4000244
1476.955092	691.2000122
1477.476597	695.2000122
1477.998047	694.5999756
1478.519442	694.4000244
1479.040783	690.4000244
1479.562068	697.4000244
1480.083299	695.2000122
1480.604475	694.5999756
1481.125596	692.5999756
1481.646663	691.7999878
1482.167674	693.5999756
1482.688631	693.5999756
1483.209533	690.4000244
1483.73038	689.7999878
1484.251172	692.5999756
1484.771909	693.7999878
1485.292592	691.2000122
1485.81322	692.0
1486.333793	693.4000244
1486.854311	692.0
1487.374775	690.5999756
1487.895183	692.4000244
1488.415537	691.2000122
1488.935836	694.4000244
1489.456081	693.0
1489.97627	692.5999756
1490.496405	694.7999878
1491.016485	690.7999878
1491.536511	693.5999756
1492.056481	693.0
1492.576397	690.0
1493.096258	692.2000122
1493.616064	697.2000122
1494.135816	691.7999878
1494.655513	694.5999756
1495.175155	693.7999878
1495.694742	692.5999756
1496.214274	691.4000244
1496.733752	693.5999756
1497.253175	690.0
1497.772544	691.0
1498.291858	693.0
1498.811116	693.2000122
1499.330321	693.4000244
1499.84947	699.5999756
1500.368565	691.7999878
1500.887605	695.2000122
1501.406591	691.4000244
1501.925521	693.4000244
1502.444397	693.4000244
1502.963219	692.2000122
1503.481985	690.7999878
1504.000697	693.2000122
1504.519355	692.4000244
1505.037957	693.5999756
1505.556505	695.0
1506.074999	691.7999878
1506.593437	693.4000244
1507.111821	693.7999878
1507.63015	694.7999878
1508.148425	690.5999756
1508.666645	693.7999878
1509.18481	692.4000244
1509.702921	693.4000244
1510.220977	692.7999878
1510.738979	701.4000244
1511.256925	697.0
1511.774817	693.2000122
1512.292655	694.7999878
1512.810438	691.0
1513.328166	690.2000122
1513.84584	691.7999878
1514.363459	692.4000244
1514.881023	691.5999756
1515.398533	690.5999756
1515.915988	694.5999756
1516.433389	694.7999878
1516.950734	695.5999756
1517.468026	699.4000244
1517.985263	692.2000122
1518.502445	696.0
1519.019572	693.2000122
1519.536645	693.2000122
1520.053664	692.0
1520.570628	693.5999756
1521.087537	690.4000244
1521.604392	692.7999878
1522.121192	689.7999878
1522.637937	694.7999878
1523.154628	692.2000122
1523.671265	691.7999878
1524.187847	691.4000244
1524.704374	694.4000244
1525.220847	694.4000244
1525.737265	688.7999878
1526.253629	690.4000244
1526.769938	690.5999756
1527.286192	693.7999878
1527.802392	692.7999878
1528.318538	691.5999756
1528.834629	697.0
1529.350666	692.4000244
1529.866648	691.0
1530.382575	687.4000244
1530.898448	695.0
1531.414266	697.5999756
1531.93003	692.2000122
1532.44574	696.2000122
1532.961395	695.5999756
1533.476995	689.7999878
1533.992541	690.5999756
1534.508033	694.4000244
1535.02347	691.4000244
1535.538852	693.2000122
1536.05418	692.2000122
1536.569454	688.7999878
1537.084673	692.7999878
1537.599837	697.4000244
1538.114947	692.7999878
1538.630003	691.2000122
1539.145004	690.7999878
1539.659951	692.5999756
1540.174843	692.5999756
1540.689681	691.2000122
1541.204465	696.7999878
1541.719194	694.0
1542.233868	692.2000122
1542.748488	690.2000122
1543.263054	690.5999756
1543.777565	693.4000244
1544.292022	694.2000122
1544.806424	695.2000122
1545.320772	693.4000244
1545.835066	696.4000244
1546.349305	693.0
1546.863489	691.0
1547.37762	690.7999878
1547.891696	694.0
1548.405717	691.2000122
1548.919684	698.4000244
1549.433597	690.4000244
1549.947455	691.4000244
1550.461259	692.2000122
1550.975009	692.5999756
1551.488704	693.4000244
1552.002345	689.4000244
1552.515931	693.7999878
1553.029463	692.7999878
1553.542941	695.0
1554.056364	691.2000122
1554.569733	692.7999878
1555.083048	692.7999878
1555.596308	692.2000122
1556.109514	690.5999756
1556.622665	689.7999878
1557.135762	694.2000122
1557.648805	691.2000122
1558.161794	692.7999878
1558.674728	693.7999878
1559.187608	693.7999878
1559.700433	694.7999878
1560.213205	692.4000244
1560.725921	692.4000244
1561.238584	695.2000122
1561.751192	696.0
1562.263746	693.4000244
1562.776246	694.4000244
1563.288691	694.2000122
1563.801082	694.4000244
1564.313419	694.0
1564.825701	692.0
1565.337929	694.7999878
1565.850103	694.2000122
1566.362223	693.4000244
1566.874288	693.2000122
1567.386299	695.0
1567.898256	696.0
1568.410158	696.2000122
1568.922007	691.7999878
1569.4338	687.2000122
1569.94554	697.2000122
1570.457226	693.0
1570.968857	693.0
1571.480434	691.0
1571.991956	695.0
1572.503425	692.4000244
1573.014839	691.5999756
1573.526199	694.7999878
1574.037505	692.2000122
1574.548756	696.5999756
1575.059953	692.5999756
1575.571096	691.5999756
1576.082185	692.0
1576.59322	693.5999756
1577.1042	695.2000122
1577.615126	695.4000244
1578.125998	694.5999756
1578.636816	693.7999878
1579.14758	695.0
1579.658289	691.5999756
1580.168944	697.4000244
1580.679545	691.4000244
1581.190092	691.7999878
1581.700585	691.2000122
1582.211023	693.5999756
1582.721407	694.0
1583.231737	693.7999878
1583.742013	694.4000244
1584.252235	693.2000122
1584.762403	691.7999878
1585.272516	687.0
1585.782575	690.5999756
1586.292581	693.4000244
1586.802532	693.5999756
1587.312428	693.5999756
1587.822271	689.4000244
1588.33206	694.4000244
1588.841794	691.7999878
1589.351474	692.0
1589.8611	688.2000122
1590.370672	696.4000244
1590.88019	693.2000122
1591.389654	692.5999756
1591.899064	693.0
1592.408419	691.5999756
