1043.018714	923.0
1043.585098	924.4000244
1044.151424	921.5999756
1044.717692	918.0
1045.283903	918.2000122
1045.850056	923.2000122
1046.416151	921.0
1046.982188	918.0
1047.548167	909.0
1048.114089	913.0
1048.679953	912.5999756
1049.24576	917.0
1049.811509	927.7999878
1050.3772	918.2000122
1050.942833	920.5999756
1051.508408	914.5999756
1052.073926	908.0
1052.639387	912.5999756
1053.204789	915.5999756
1053.770134	928.7999878
1054.335421	911.0
1054.900651	908.0
1055.465823	907.0
1056.030937	909.5999756
1056.595993	915.5999756
1057.160992	910.4000244
1057.725934	904.5999756
1058.290817	907.5999756
1058.855643	911.5999756
1059.420411	911.2000122
1059.985122	900.2000122
1060.549775	912.0
1061.114371	908.0
1061.678908	911.2000122
1062.243389	908.0
1062.807811	905.2000122
1063.372176	907.0
1063.936483	913.2000122
1064.500733	907.7999878
1065.064925	909.2000122
1065.62906	906.2000122
1066.193137	915.0
1066.757156	903.2000122
1067.321118	909.4000244
1067.885022	903.4000244
1068.448869	902.0
1069.012658	910.2000122
1069.57639	908.7999878
1070.140063	912.4000244
1070.70368	903.0
1071.267239	901.4000244
1071.83074	903.4000244
1072.394184	907.7999878
1072.95757	904.4000244
1073.520899	895.2000122
1074.08417	912.0
1074.647383	903.4000244
1075.21054	907.5999756
1075.773638	901.2000122
1076.336679	903.4000244
1076.899663	900.0
1077.462589	903.4000244
1078.025457	905.0
1078.588268	900.0
1079.151022	903.0
1079.713718	890.2000122
1080.276356	908.0
1080.838937	908.5999756
1081.401461	898.4000244
1081.963927	897.7999878
1082.526336	896.7999878
1083.088687	910.5999756
1083.650981	892.5999756
1084.213217	904.7999878
1084.775396	903.2000122
1085.337517	902.4000244
1085.899581	899.7999878
1086.461587	897.0
1087.023536	897.7999878
1087.585428	902.2000122
1088.147262	903.7999878
1088.709039	898.4000244
1089.270758	897.4000244
1089.83242	896.7999878
1090.394024	894.5999756
1090.955571	902.7999878
1091.517061	905.5999756
1092.078493	894.2000122
1092.639868	883.4000244
1093.201185	897.7999878
1093.762445	899.5999756
1094.323648	895.4000244
1094.884793	886.0
1095.445881	891.0
1096.006911	898.7999878
1096.567884	895.7999878
1097.1288	897.7999878
1097.689659	899.0
1098.25046	894.0
1098.811203	890.5999756
1099.37189	897.0
1099.932518	896.2000122
1100.49309	892.0
1101.053604	897.7999878
1101.614061	895.5999756
1102.174461	889.5999756
1102.734803	891.5999756
1103.295088	882.5999756
1103.855316	896.0
1104.415486	891.5999756
1104.975599	883.5999756
1105.535655	894.0
1106.095653	890.2000122
1106.655594	894.5999756
1107.215478	888.5999756
1107.775305	882.4000244
1108.335074	888.5999756
1108.894786	888.0
1109.45444	885.7999878
1110.014038	886.0
1110.573578	884.5999756
1111.133061	885.7999878
1111.692486	884.5999756
1112.251854	889.5999756
1112.811165	886.4000244
1113.370419	889.7999878
1113.929616	893.4000244
1114.488755	896.2000122
1115.047837	886.0
1115.606862	891.0
1116.16583	875.4000244
1116.72474	885.0
1117.283593	890.2000122
1117.842389	886.5999756
1118.401128	888.2000122
1118.959809	879.7999878
1119.518433	887.0
1120.077	880.4000244
1120.63551	882.5999756
1121.193963	888.2000122
1121.752358	888.4000244
1122.310697	884.5999756
1122.868978	881.0
1123.427202	881.5999756
1123.985368	886.4000244
1124.543478	889.7999878
1125.10153	879.7999878
1125.659526	881.5999756
1126.217464	884.4000244
1126.775345	882.5999756
1127.333168	881.5999756
1127.890935	880.2000122
1128.448644	884.0
1129.006297	888.2000122
1129.563892	878.4000244
1130.12143	886.5999756
1130.678911	879.0
1131.236335	886.0
1131.793701	886.2000122
1132.351011	879.0
1132.908263	882.2000122
1133.465458	877.2000122
1134.022597	880.0
1134.579678	887.5999756
1135.136702	882.5999756
1135.693669	882.0
1136.250578	885.4000244
1136.807431	879.2000122
1137.364227	881.7999878
1137.920965	887.7999878
1138.477647	885.0
1139.034271	886.2000122
1139.590839	893.2000122
1140.147349	883.4000244
1140.703802	883.2000122
1141.260198	887.7999878
1141.816537	885.5999756
1142.37282	900.2000122
1142.929045	890.4000244
1143.485213	890.0
1144.041323	890.5999756
1144.597377	880.2000122
1145.153374	891.4000244
1145.709314	890.7999878
1146.265197	890.0
1146.821023	902.0
1147.376792	910.5999756
1147.932503	896.2000122
1148.488158	897.0
1149.043756	899.5999756
1149.599297	958.7999878
1150.154781	1105.599976
1150.710207	1044.199951
1151.265577	926.4000244
1151.82089	903.5999756
1152.376146	892.5999756
1152.931345	886.7999878
1153.486487	876.2000122
1154.041572	884.4000244
1154.5966	882.4000244
1155.151571	885.7999878
1155.706485	876.2000122
1156.261342	880.7999878
1156.816142	886.4000244
1157.370885	884.5999756
1157.925572	875.2000122
1158.480201	876.5999756
1159.034774	880.5999756
1159.589289	884.4000244
1160.143748	882.5999756
1160.698149	874.5999756
1161.252494	884.4000244
1161.806782	882.0
1162.361013	866.4000244
1162.915187	886.7999878
1163.469304	875.7999878
1164.023364	878.5999756
1164.577368	880.0
1165.131314	882.0
1165.685204	880.7999878
1166.239036	877.0
1166.792812	885.5999756
1167.346531	874.0
1167.900193	883.4000244
1168.453798	872.7999878
1169.007347	874.4000244
1169.560838	877.4000244
1170.114273	876.2000122
1170.66765	882.0
1171.220971	880.2000122
1171.774235	880.0
1172.327443	874.4000244
1172.880593	876.5999756
1173.433687	889.0
1173.986723	882.0
1174.539703	881.5999756
1175.092626	871.4000244
1175.645493	885.7999878
1176.198302	878.2000122
1176.751055	880.2000122
1177.303751	873.4000244
1177.85639	873.2000122
1178.408972	877.2000122
1178.961498	878.7999878
1179.513966	879.7999878
1180.066378	876.0
1180.618733	877.4000244
1181.171032	881.4000244
1181.723273	884.7999878
1182.275458	877.2000122
1182.827586	871.2000122
1183.379657	876.4000244
1183.931672	873.4000244
1184.48363	873.7999878
1185.035531	882.7999878
1185.587375	880.4000244
1186.139162	878.0
1186.690893	873.5999756
1187.242567	874.4000244
1187.794184	877.0
1188.345745	872.0
1188.897249	880.2000122
1189.448696	876.2000122
1190.000086	876.0
1190.55142	872.4000244
1191.102697	876.2000122
1191.653918	867.5999756
1192.205081	877.7999878
1192.756188	866.5999756
1193.307238	890.5999756
1193.858232	875.4000244
1194.409169	869.0
1194.960049	866.7999878
1195.510872	875.2000122
1196.061639	875.2000122
1196.612349	876.7999878
1197.163003	872.0
1197.713599	871.0
1198.264139	880.2000122
1198.814623	873.4000244
1199.36505	864.2000122
1199.91542	874.0
1200.465734	868.2000122
1201.01599	865.7999878
1201.566191	870.2000122
1202.116334	880.4000244
1202.666421	868.0
1203.216452	874.5999756
1203.766425	877.2000122
1204.316343	867.5999756
1204.866203	871.5999756
1205.416007	873.2000122
1205.965754	873.7999878
1206.515445	875.2000122
1207.065079	876.7999878
1207.614657	869.5999756
1208.164177	866.7999878
1208.713642	867.4000244
1209.26305	871.5999756
1209.812401	869.2000122
1210.361695	867.0
1210.910933	870.7999878
1211.460115	868.2000122
1212.00924	868.5999756
1212.558308	864.2000122
1213.10732	862.7999878
1213.656275	865.2000122
1214.205174	872.2000122
1214.754016	870.0
1215.302801	869.7999878
1215.85153	869.2000122
1216.400203	867.5999756
1216.948819	862.7999878
1217.497378	864.0
1218.045881	856.2000122
1218.594327	869.7999878
1219.142717	863.2000122
1219.691051	870.5999756
1220.239327	863.0
1220.787548	860.0
1221.335712	864.4000244
1221.883819	866.5999756
1222.43187	863.0
1222.979864	865.4000244
1223.527802	866.5999756
1224.075683	863.0
1224.623508	864.5999756
1225.171277	865.5999756
1225.718989	866.0
1226.266644	870.0
1226.814243	862.2000122
1227.361786	868.7999878
1227.909272	870.7999878
1228.456702	866.7999878
1229.004075	869.4000244
1229.551392	873.4000244
1230.098652	868.4000244
1230.645856	863.7999878
1231.193003	868.0
1231.740094	867.7999878
1232.287129	859.7999878
1232.834107	865.7999878
1233.381029	875.0
1233.927894	862.7999878
1234.474703	869.0
1235.021455	864.5999756
1235.568151	859.4000244
1236.114791	867.5999756
1236.661374	871.4000244
1237.207901	863.4000244
1237.754372	859.5999756
1238.300786	863.7999878
1238.847144	871.0
1239.393445	862.4000244
1239.93969	865.2000122
1240.485879	861.7999878
1241.032011	867.4000244
1241.578087	873.0
1242.124106	860.2000122
1242.67007	858.4000244
1243.215976	863.2000122
1243.761827	858.4000244
1244.307621	858.5999756
1244.853359	865.5999756
1245.39904	869.2000122
1245.944665	861.0
1246.490234	864.5999756
1247.035746	863.2000122
1247.581203	863.5999756
1248.126602	870.7999878
1248.671946	863.4000244
1249.217233	853.2000122
1249.762464	871.4000244
1250.307638	861.7999878
1250.852757	858.5999756
1251.397819	860.5999756
1251.942824	870.5999756
1252.487774	865.0
1253.032667	858.5999756
1253.577503	866.2000122
1254.122284	868.7999878
1254.667008	863.7999878
1255.211676	865.7999878
1255.756288	866.4000244
1256.300843	861.7999878
1256.845342	861.4000244
1257.389785	863.4000244
1257.934172	861.5999756
1258.478502	865.0
1259.022776	865.7999878
1259.566994	864.2000122
1260.111156	876.2000122
1260.655261	866.7999878
1261.199311	859.0
1261.743304	865.4000244
1262.28724	869.5999756
1262.831121	875.2000122
1263.374945	879.7999878
1263.918713	892.2000122
1264.462425	906.7999878
1265.006081	907.7999878
1265.54968	885.5999756
1266.093223	879.7999878
1266.636711	870.7999878
1267.180141	866.0
1267.723516	855.0
1268.266835	866.4000244
1268.810097	862.0
1269.353303	857.7999878
1269.896453	863.2000122
1270.439547	856.0
1270.982584	861.2000122
1271.525566	864.5999756
1272.068491	868.2000122
1272.61136	862.4000244
1273.154173	858.5999756
1273.69693	858.5999756
1274.239631	863.0
1274.782275	866.2000122
1275.324864	863.4000244
1275.867396	856.7999878
1276.409872	858.5999756
1276.952292	860.0
1277.494656	871.5999756
1278.036964	866.2000122
1278.579215	857.5999756
1279.121411	862.2000122
1279.66355	873.2000122
1280.205634	870.5999756
1280.747661	865.7999878
1281.289632	868.4000244
1281.831547	872.0
1282.373406	886.7999878
1282.915209	901.7999878
1283.456955	959.2000122
1283.998646	1111.400024
1284.540281	1416.0
1285.081859	1557.0
1285.623381	1197.199951
1286.164848	967.0
1286.706258	896.7999878
1287.247612	875.7999878
1287.788911	865.7999878
1288.330153	867.0
1288.871339	863.7999878
1289.412469	860.4000244
1289.953543	861.2000122
1290.494561	860.7999878
1291.035523	862.2000122
1291.576428	859.5999756
1292.117278	861.0
1292.658072	859.0
1293.19881	859.7999878
1293.739492	854.7999878
1294.280118	861.0
1294.820687	851.4000244
1295.361201	861.0
1295.901659	854.2000122
1296.442061	860.0
1296.982406	853.5999756
1297.522696	856.7999878
1298.06293	861.2000122
1298.603108	857.5999756
1299.143229	850.2000122
1299.683295	859.0
1300.223305	858.2000122
1300.763259	854.0
1301.303157	861.5999756
1301.842999	851.2000122
1302.382785	852.2000122
1302.922515	846.7999878
1303.462189	850.4000244
1304.001807	854.0
1304.541369	855.7999878
1305.080875	858.5999756
1305.620326	859.0
1306.15972	854.5999756
1306.699058	858.0
1307.238341	849.7999878
1307.777567	851.4000244
1308.316738	854.0
1308.855853	850.7999878
1309.394912	853.7999878
1309.933915	850.4000244
1310.472862	852.7999878
1311.011753	860.0
1311.550588	858.5999756
1312.089367	851.2000122
1312.62809	850.4000244
1313.166758	852.2000122
1313.70537	843.0
1314.243925	857.5999756
1314.782425	850.2000122
1315.320869	846.5999756
1315.859257	849.0
1316.397589	848.7999878
1316.935866	860.5999756
1317.474086	851.4000244
1318.012251	853.4000244
1318.55036	853.7999878
1319.088413	851.4000244
1319.62641	854.2000122
1320.164351	858.2000122
1320.702236	856.7999878
1321.240066	850.7999878
1321.777839	852.5999756
1322.315557	851.7999878
1322.853219	850.4000244
1323.390826	848.2000122
1323.928376	851.2000122
1324.465871	846.5999756
1325.003309	843.5999756
1325.540692	848.0
1326.07802	850.0
1326.615291	844.5999756
1327.152506	852.2000122
1327.689666	847.4000244
1328.22677	857.2000122
1328.763818	848.0
1329.300811	848.7999878
1329.837747	845.2000122
1330.374628	857.4000244
1330.911453	850.5999756
1331.448222	851.4000244
1331.984936	849.2000122
1332.521594	855.7999878
1333.058196	856.0
1333.594742	847.2000122
1334.131232	844.5999756
1334.667667	850.7999878
1335.204046	852.5999756
1335.740369	847.5999756
1336.276637	859.0
1336.812848	847.7999878
1337.349004	855.5999756
1337.885105	848.2000122
1338.421149	857.0
1338.957138	849.7999878
1339.493071	844.5999756
1340.028949	851.7999878
1340.56477	848.0
1341.100536	855.5999756
1341.636246	852.5999756
1342.171901	846.5999756
1342.7075	846.4000244
1343.243043	850.0
1343.77853	845.5999756
1344.313962	851.4000244
1344.849338	846.2000122
1345.384659	849.5999756
1345.919923	851.5999756
1346.455133	840.5999756
1346.990286	855.4000244
1347.525384	849.4000244
1348.060426	842.7999878
1348.595412	847.2000122
1349.130343	845.4000244
1349.665218	843.7999878
1350.200037	851.7999878
1350.734801	846.2000122
1351.269509	842.7999878
1351.804162	849.5999756
1352.338758	845.2000122
1352.8733	853.7999878
1353.407785	848.2000122
1353.942215	848.5999756
1354.476589	842.5999756
1355.010908	850.5999756
1355.545171	838.0
1356.079379	845.7999878
1356.61353	851.5999756
1357.147627	842.0
1357.681667	850.5999756
1358.215652	849.4000244
1358.749582	851.0
1359.283456	847.7999878
1359.817274	850.5999756
1360.351037	838.4000244
1360.884744	848.5999756
1361.418395	845.2000122
1361.951991	851.5999756
1362.485531	842.0
1363.019016	849.5999756
1363.552445	850.2000122
1364.085819	843.0
1364.619137	840.4000244
1365.1524	845.7999878
1365.685607	853.5999756
1366.218758	847.4000244
1366.751854	843.5999756
1367.284894	849.5999756
1367.817879	844.2000122
1368.350808	847.4000244
1368.883682	849.5999756
1369.4165	846.5999756
1369.949263	871.4000244
1370.48197	867.7999878
1371.014622	848.5999756
1371.547218	837.7999878
1372.079758	849.4000244
1372.612244	849.5999756
1373.144673	839.7999878
1373.677047	837.2000122
1374.209366	844.4000244
1374.741629	839.4000244
1375.273836	847.2000122
1375.805989	846.5999756
1376.338085	841.4000244
1376.870126	838.5999756
1377.402112	850.5999756
1377.934042	851.5999756
1378.465917	852.4000244
1378.997736	843.7999878
1379.5295	848.5999756
1380.061208	848.7999878
1380.592861	853.2000122
1381.124459	850.4000244
1381.656	849.4000244
1382.187487	849.0
1382.718918	846.5999756
1383.250294	851.2000122
1383.781614	854.7999878
1384.312879	858.7999878
1384.844088	861.2000122
1385.375242	864.2000122
1385.90634	871.7999878
1386.437383	905.7999878
1386.968371	980.2000122
1387.499303	1218.0
1388.03018	1906.199951
1388.561001	2046.800049
1389.091767	1254.0
1389.622478	954.5999756
1390.153133	885.2000122
1390.683733	870.7999878
1391.214277	862.5999756
1391.744766	855.5999756
1392.2752	852.5999756
1392.805578	844.0
1393.335901	843.2000122
1393.866168	846.2000122
1394.396381	846.4000244
1394.926537	836.5999756
1395.456639	848.7999878
1395.986685	840.4000244
1396.516675	841.2000122
1397.046611	836.5999756
1397.576491	847.5999756
1398.106315	844.2000122
1398.636084	841.5999756
1399.165798	848.7999878
1399.695457	838.7999878
1400.22506	843.2000122
1400.754608	832.4000244
1401.284101	840.5999756
1401.813538	839.2000122
1402.34292	844.4000244
1402.872247	841.0
1403.401518	845.4000244
1403.930734	841.5999756
1404.459895	843.2000122
1404.989	840.7999878
1405.51805	843.4000244
1406.047045	838.2000122
1406.575984	850.2000122
1407.104869	843.7999878
1407.633697	849.4000244
1408.162471	859.4000244
1408.691189	873.0
1409.219852	904.5999756
1409.74846	921.7999878
1410.277013	897.0
1410.80551	862.2000122
1411.333952	847.4000244
1411.862339	844.5999756
1412.39067	842.5999756
1412.918946	844.7999878
1413.447167	839.2000122
1413.975333	840.4000244
1414.503444	839.4000244
1415.031499	835.0
1415.559499	844.7999878
1416.087444	838.4000244
1416.615333	831.2000122
1417.143167	840.0
1417.670947	837.4000244
1418.19867	836.5999756
1418.726339	839.4000244
1419.253952	837.4000244
1419.781511	835.7999878
1420.309014	834.4000244
1420.836461	840.2000122
1421.363854	833.7999878
1421.891191	830.2000122
1422.418474	836.2000122
1422.945701	843.5999756
1423.472872	838.2000122
1423.999989	837.2000122
1424.52705	835.4000244
1425.054057	843.7999878
1425.581008	834.5999756
1426.107904	836.4000244
1426.634745	838.2000122
1427.16153	839.4000244
1427.688261	831.4000244
1428.214936	833.2000122
1428.741556	833.4000244
1429.268121	842.5999756
1429.794631	834.2000122
1430.321085	830.5999756
1430.847485	829.2000122
1431.373829	835.0
1431.900118	835.5999756
1432.426353	837.2000122
1432.952532	829.5999756
1433.478655	832.4000244
1434.004724	837.5999756
1434.530738	835.2000122
1435.056696	830.0
1435.5826	829.7999878
1436.108448	829.7999878
1436.634241	831.7999878
1437.159979	832.4000244
1437.685662	832.7999878
1438.21129	835.5999756
1438.736863	833.5999756
1439.262381	822.4000244
1439.787843	832.0
1440.313251	831.2000122
1440.838603	831.5999756
1441.3639	834.0
1441.889143	827.5999756
1442.41433	832.2000122
1442.939462	830.4000244
1443.464539	826.7999878
1443.989561	835.2000122
1444.514528	834.4000244
1445.03944	828.4000244
1445.564297	828.4000244
1446.089099	822.5999756
1446.613846	830.2000122
1447.138537	826.7999878
1447.663174	828.4000244
1448.187756	823.0
1448.712282	830.7999878
1449.236754	828.0
1449.761171	827.7999878
1450.285532	835.2000122
1450.809839	831.4000244
1451.33409	826.4000244
1451.858287	822.5999756
1452.382428	824.0
1452.906515	830.5999756
1453.430546	818.4000244
1453.954523	825.2000122
1454.478444	828.4000244
1455.002311	827.5999756
1455.526123	826.7999878
1456.049879	831.5999756
1456.573581	827.0
1457.097227	826.2000122
1457.620819	830.7999878
1458.144356	825.4000244
1458.667837	828.5999756
1459.191264	828.0
1459.714636	823.0
1460.237952	824.0
1460.761214	825.4000244
1461.284421	832.0
1461.807573	820.0
1462.33067	826.0
1462.853712	837.0
1463.376699	823.4000244
1463.899632	819.4000244
1464.422509	831.5999756
1464.945331	825.7999878
1465.468099	827.0
1465.990811	829.4000244
1466.513469	823.2000122
1467.036071	825.2000122
1467.558619	832.4000244
1468.081112	829.4000244
1468.60355	829.2000122
1469.125933	822.0
1469.648261	826.7999878
1470.170534	828.7999878
1470.692752	827.4000244
1471.214916	816.0
1471.737024	827.0
1472.259078	825.2000122
1472.781077	819.0
1473.303021	824.0
1473.82491	827.0
1474.346744	824.4000244
1474.868523	829.4000244
1475.390248	819.4000244
1475.911917	823.4000244
1476.433532	823.7999878
1476.955092	817.4000244
1477.476597	825.4000244
1477.998047	823.5999756
1478.519442	828.4000244
1479.040783	819.7999878
1479.562068	826.5999756
1480.083299	824.7999878
1480.604475	826.7999878
1481.125596	822.7999878
1481.646663	822.0
1482.167674	825.4000244
1482.688631	828.2000122
1483.209533	820.4000244
1483.73038	827.2000122
1484.251172	811.7999878
1484.771909	827.7999878
1485.292592	821.2000122
1485.81322	827.5999756
1486.333793	821.0
1486.854311	820.0
1487.374775	828.2000122
1487.895183	817.7999878
1488.415537	818.5999756
1488.935836	826.0
1489.456081	820.7999878
1489.97627	818.0
1490.496405	824.0
1491.016485	826.0
1491.536511	824.4000244
1492.056481	818.2000122
1492.576397	818.0
1493.096258	821.5999756
1493.616064	825.7999878
1494.135816	821.0
1494.655513	825.4000244
1495.175155	819.5999756
1495.694742	822.7999878
1496.214274	813.7999878
1496.733752	820.2000122
1497.253175	819.0
1497.772544	823.7999878
1498.291858	818.0
1498.811116	818.2000122
1499.330321	823.2000122
1499.84947	827.7999878
1500.368565	826.0
1500.887605	821.5999756
1501.406591	821.2000122
1501.925521	823.7999878
1502.444397	822.2000122
1502.963219	822.4000244
1503.481985	817.0
1504.000697	818.2000122
1504.519355	817.2000122
1505.037957	819.7999878
1505.556505	813.0
1506.074999	817.7999878
1506.593437	814.7999878
1507.111821	817.7999878
1507.63015	820.4000244
1508.148425	814.4000244
1508.666645	821.2000122
1509.18481	820.0
1509.702921	819.0
1510.220977	818.7999878
1510.738979	827.4000244
1511.256925	828.0
1511.774817	816.2000122
1512.292655	818.7999878
1512.810438	819.4000244
1513.328166	818.5999756
1513.84584	815.4000244
1514.363459	818.7999878
1514.881023	819.7999878
1515.398533	821.7999878
1515.915988	816.5999756
1516.433389	812.2000122
1516.950734	817.2000122
1517.468026	822.5999756
1517.985263	815.7999878
1518.502445	815.7999878
1519.019572	819.4000244
1519.536645	822.2000122
1520.053664	816.5999756
1520.570628	814.4000244
1521.087537	822.7999878
1521.604392	819.0
1522.121192	816.0
1522.637937	823.5999756
1523.154628	813.5999756
1523.671265	818.5999756
1524.187847	819.0
1524.704374	810.2000122
1525.220847	816.2000122
1525.737265	811.4000244
1526.253629	821.5999756
1526.769938	817.4000244
1527.286192	816.0
1527.802392	812.7999878
1528.318538	819.5999756
1528.834629	817.5999756
1529.350666	815.2000122
1529.866648	808.7999878
1530.382575	818.7999878
1530.898448	813.0
1531.414266	816.2000122
1531.93003	814.2000122
1532.44574	814.2000122
1532.961395	812.0
1533.476995	812.5999756
1533.992541	815.2000122
1534.508033	822.0
1535.02347	824.2000122
1535.538852	817.7999878
1536.05418	816.7999878
1536.569454	819.4000244
1537.084673	815.0
1537.599837	819.4000244
1538.114947	820.0
1538.630003	816.5999756
1539.145004	824.0
1539.659951	810.4000244
1540.174843	815.7999878
1540.689681	816.7999878
1541.204465	811.7999878
1541.719194	806.5999756
1542.233868	815.5999756
1542.748488	808.7999878
1543.263054	820.2000122
1543.777565	812.5999756
1544.292022	817.0
1544.806424	816.2000122
1545.320772	818.5999756
1545.835066	811.7999878
1546.349305	809.2000122
1546.863489	816.2000122
1547.37762	814.4000244
1547.891696	819.0
1548.405717	822.0
1548.919684	818.7999878
1549.433597	812.4000244
1549.947455	814.0
1550.461259	808.7999878
1550.975009	815.7999878
1551.488704	814.4000244
1552.002345	812.0
1552.515931	820.7999878
1553.029463	817.5999756
1553.542941	813.4000244
1554.056364	821.5999756
1554.569733	808.7999878
1555.083048	817.0
1555.596308	815.4000244
1556.109514	809.4000244
1556.622665	812.2000122
1557.135762	807.5999756
1557.648805	820.0
1558.161794	811.2000122
1558.674728	817.4000244
1559.187608	812.7999878
1559.700433	819.4000244
1560.213205	811.5999756
1560.725921	806.2000122
1561.238584	817.2000122
1561.751192	813.7999878
1562.263746	822.4000244
1562.776246	815.7999878
1563.288691	811.0
1563.801082	814.2000122
1564.313419	822.5999756
1564.825701	814.5999756
1565.337929	810.5999756
1565.850103	811.2000122
1566.362223	814.5999756
1566.874288	814.5999756
1567.386299	818.7999878
1567.898256	814.0
1568.410158	811.4000244
1568.922007	809.7999878
1569.4338	813.7999878
1569.94554	816.2000122
1570.457226	809.5999756
1570.968857	816.2000122
1571.480434	814.7999878
1571.991956	816.2000122
1572.503425	810.5999756
1573.014839	804.5999756
1573.526199	814.0
1574.037505	809.5999756
1574.548756	810.4000244
1575.059953	811.7999878
1575.571096	816.2000122
1576.082185	810.7999878
1576.59322	814.2000122
1577.1042	813.0
1577.615126	818.7999878
1578.125998	814.4000244
1578.636816	812.4000244
1579.14758	809.0
1579.658289	809.0
1580.168944	810.7999878
1580.679545	806.0
1581.190092	814.2000122
1581.700585	812.2000122
1582.211023	808.0
1582.721407	815.2000122
1583.231737	813.7999878
1583.742013	803.4000244
1584.252235	807.4000244
1584.762403	808.7999878
1585.272516	812.2000122
1585.782575	814.2000122
1586.292581	805.7999878
1586.802532	816.5999756
1587.312428	810.0
1587.822271	808.4000244
1588.33206	815.4000244
1588.841794	812.7999878
1589.351474	803.0
1589.8611	812.5999756
1590.370672	808.7999878
1590.88019	807.2000122
1591.389654	814.4000244
1591.899064	809.7999878
