1042.452273	913.2000122
1043.018714	911.7999878
1043.585098	911.4000244
1044.151424	905.4000244
1044.717692	911.7999878
1045.283903	902.4000244
1045.850056	904.5999756
1046.416151	906.2000122
1046.982188	899.7999878
1047.548167	898.7999878
1048.114089	909.4000244
1048.679953	896.4000244
1049.24576	909.4000244
1049.811509	903.4000244
1050.3772	902.7999878
1050.942833	905.2000122
1051.508408	904.2000122
1052.073926	898.2000122
1052.639387	894.2000122
1053.204789	904.0
1053.770134	899.5999756
1054.335421	891.7999878
1054.900651	907.5999756
1055.465823	898.0
1056.030937	901.7999878
1056.595993	893.0
1057.160992	898.4000244
1057.725934	892.4000244
1058.290817	899.0
1058.855643	891.4000244
1059.420411	896.0
1059.985122	898.0
1060.549775	896.2000122
1061.114371	895.5999756
1061.678908	898.0
1062.243389	896.2000122
1062.807811	892.4000244
1063.372176	896.5999756
1063.936483	893.7999878
1064.500733	902.7999878
1065.064925	893.0
1065.62906	901.5999756
1066.193137	899.2000122
1066.757156	886.7999878
1067.321118	896.4000244
1067.885022	892.5999756
1068.448869	891.0
1069.012658	892.7999878
1069.57639	899.5999756
1070.140063	893.2000122
1070.70368	897.7999878
1071.267239	887.0
1071.83074	893.7999878
1072.394184	888.5999756
1072.95757	895.4000244
1073.520899	886.2000122
1074.08417	892.5999756
1074.647383	889.7999878
1075.21054	880.4000244
1075.773638	883.5999756
1076.336679	888.0
1076.899663	885.5999756
1077.462589	897.0
1078.025457	884.0
1078.588268	887.2000122
1079.151022	890.2000122
1079.713718	894.2000122
1080.276356	892.0
1080.838937	889.7999878
1081.401461	887.0
1081.963927	890.2000122
1082.526336	895.5999756
1083.088687	890.2000122
1083.650981	893.4000244
1084.213217	887.5999756
1084.775396	884.4000244
1085.337517	888.5999756
1085.899581	887.2000122
1086.461587	883.0
1087.023536	883.5999756
1087.585428	888.7999878
1088.147262	878.5999756
1088.709039	882.7999878
1089.270758	885.5999756
1089.83242	883.7999878
1090.394024	878.5999756
1090.955571	885.0
1091.517061	884.2000122
1092.078493	886.7999878
1092.639868	886.2000122
1093.201185	878.7999878
1093.762445	881.5999756
1094.323648	879.0
1094.884793	884.0
1095.445881	879.4000244
1096.006911	877.5999756
1096.567884	883.7999878
1097.1288	880.0
1097.689659	887.7999878
1098.25046	881.0
1098.811203	885.4000244
1099.37189	886.2000122
1099.932518	880.4000244
1100.49309	882.2000122
1101.053604	886.2000122
1101.614061	882.0
1102.174461	880.0
1102.734803	881.5999756
1103.295088	877.7999878
1103.855316	888.2000122
1104.415486	875.0
1104.975599	874.0
1105.535655	882.4000244
1106.095653	877.7999878
1106.655594	873.7999878
1107.215478	878.2000122
1107.775305	881.0
1108.335074	871.2000122
1108.894786	882.2000122
1109.45444	869.2000122
1110.014038	874.7999878
1110.573578	880.7999878
1111.133061	879.7999878
1111.692486	879.4000244
1112.251854	877.4000244
1112.811165	876.5999756
1113.370419	879.7999878
1113.929616	877.5999756
1114.488755	877.2000122
1115.047837	869.2000122
1115.606862	874.4000244
1116.16583	871.2000122
1116.72474	875.4000244
1117.283593	881.0
1117.842389	875.7999878
1118.401128	872.5999756
1118.959809	870.4000244
1119.518433	867.7999878
1120.077	869.4000244
1120.63551	876.7999878
1121.193963	872.7999878
1121.752358	872.4000244
1122.310697	873.4000244
1122.868978	876.5999756
1123.427202	873.5999756
1123.985368	867.4000244
1124.543478	874.2000122
1125.10153	870.7999878
1125.659526	872.4000244
1126.217464	877.4000244
1126.775345	872.7999878
1127.333168	871.0
1127.890935	872.2000122
1128.448644	869.7999878
1129.006297	874.7999878
1129.563892	869.4000244
1130.12143	869.2000122
1130.678911	875.0
1131.236335	876.4000244
1131.793701	867.4000244
1132.351011	868.0
1132.908263	871.5999756
1133.465458	876.4000244
1134.022597	862.7999878
1134.579678	873.4000244
1135.136702	875.4000244
1135.693669	873.7999878
1136.250578	873.0
1136.807431	877.4000244
1137.364227	864.2000122
1137.920965	875.7999878
1138.477647	865.5999756
1139.034271	870.0
1139.590839	870.7999878
1140.147349	869.4000244
1140.703802	876.5999756
1141.260198	867.4000244
1141.816537	870.2000122
1142.37282	871.4000244
1142.929045	874.7999878
1143.485213	882.7999878
1144.041323	868.0
1144.597377	869.0
1145.153374	867.5999756
1145.709314	874.2000122
1146.265197	879.2000122
1146.821023	885.2000122
1147.376792	886.7999878
1147.932503	880.7999878
1148.488158	881.4000244
1149.043756	887.5999756
1149.599297	933.5999756
1150.154781	1026.199951
1150.710207	993.2000122
1151.265577	897.0
1151.82089	876.4000244
1152.376146	874.7999878
1152.931345	874.5999756
1153.486487	870.0
1154.041572	871.4000244
1154.5966	873.5999756
1155.151571	869.4000244
1155.706485	875.0
1156.261342	868.2000122
1156.816142	861.7999878
1157.370885	874.4000244
1157.925572	866.0
1158.480201	870.0
1159.034774	871.2000122
1159.589289	875.0
1160.143748	865.7999878
1160.698149	879.2000122
1161.252494	873.0
1161.806782	869.4000244
1162.361013	875.5999756
1162.915187	869.2000122
1163.469304	870.4000244
1164.023364	877.5999756
1164.577368	873.5999756
1165.131314	871.0
1165.685204	876.4000244
1166.239036	875.2000122
1166.792812	876.2000122
1167.346531	873.2000122
1167.900193	873.0
1168.453798	872.7999878
1169.007347	862.2000122
1169.560838	872.4000244
1170.114273	868.0
1170.66765	868.7999878
1171.220971	866.0
1171.774235	872.0
1172.327443	864.4000244
1172.880593	871.2000122
1173.433687	870.0
1173.986723	870.0
1174.539703	868.0
1175.092626	874.5999756
1175.645493	864.2000122
1176.198302	871.2000122
1176.751055	866.0
1177.303751	861.2000122
1177.85639	862.2000122
1178.408972	865.5999756
1178.961498	871.0
1179.513966	870.5999756
1180.066378	856.5999756
1180.618733	871.0
1181.171032	865.4000244
1181.723273	863.4000244
1182.275458	863.2000122
1182.827586	868.7999878
1183.379657	861.0
1183.931672	871.4000244
1184.48363	864.7999878
1185.035531	864.5999756
1185.587375	865.4000244
1186.139162	863.7999878
1186.690893	859.7999878
1187.242567	860.5999756
1187.794184	866.5999756
1188.345745	855.4000244
1188.897249	866.7999878
1189.448696	869.4000244
1190.000086	874.7999878
1190.55142	865.5999756
1191.102697	864.4000244
1191.653918	859.7999878
1192.205081	861.2000122
1192.756188	861.0
1193.858232	860.4000244
1194.409169	864.4000244
1194.960049	866.7999878
1195.510872	863.0
1196.061639	863.2000122
1196.612349	863.0
1197.163003	865.2000122
1197.713599	868.0
1198.264139	857.2000122
1198.814623	869.5999756
1199.36505	862.5999756
1199.91542	866.2000122
1200.465734	862.7999878
1201.01599	858.5999756
1201.566191	858.0
1202.116334	859.4000244
1202.666421	865.2000122
1203.216452	863.7999878
1203.766425	859.2000122
1204.316343	861.4000244
1204.866203	861.4000244
1205.416007	867.2000122
1205.965754	866.0
1206.515445	853.0
1207.065079	863.0
1207.614657	860.5999756
1208.164177	859.5999756
1208.713642	861.7999878
1209.26305	859.7999878
1209.812401	856.7999878
1210.361695	860.7999878
1210.910933	858.0
1211.460115	850.2000122
1212.00924	866.5999756
1212.558308	857.4000244
1213.10732	866.7999878
1213.656275	864.0
1214.205174	859.5999756
1214.754016	864.7999878
1215.302801	860.0
1215.85153	852.5999756
1216.400203	861.0
1216.948819	857.7999878
1217.497378	861.2000122
1218.045881	867.2000122
1218.594327	858.5999756
1219.142717	855.4000244
1219.691051	859.4000244
1220.239327	860.2000122
1220.787548	857.0
1221.335712	851.7999878
1221.883819	860.4000244
1222.43187	861.5999756
1222.979864	861.2000122
1223.527802	851.0
1224.075683	857.0
1224.623508	857.5999756
1225.171277	858.4000244
1225.718989	855.2000122
1226.266644	857.5999756
1226.814243	855.0
1227.361786	862.0
1227.909272	859.0
1228.456702	857.2000122
1229.004075	856.4000244
1229.551392	856.5999756
1230.098652	855.7999878
1230.645856	857.2000122
1231.193003	857.7999878
1231.740094	856.2000122
1232.287129	859.4000244
1232.834107	862.5999756
1233.381029	858.4000244
1233.927894	857.4000244
1234.474703	856.7999878
1235.021455	855.4000244
1235.568151	850.2000122
1236.114791	854.7999878
1236.661374	858.2000122
1237.207901	854.2000122
1237.754372	864.0
1238.300786	853.4000244
1238.847144	860.4000244
1239.393445	857.0
1239.93969	856.2000122
1240.485879	853.5999756
1241.032011	855.0
1241.578087	853.5999756
1242.124106	856.4000244
1242.67007	855.2000122
1243.215976	857.7999878
1243.761827	858.5999756
1244.307621	850.4000244
1244.853359	861.2000122
1245.39904	859.2000122
1245.944665	858.4000244
1246.490234	857.5999756
1247.035746	857.5999756
1247.581203	854.5999756
1248.126602	858.2000122
1248.671946	854.2000122
1249.217233	849.2000122
1249.762464	848.0
1250.307638	855.7999878
1250.852757	850.2000122
1251.397819	850.5999756
1251.942824	855.7999878
1252.487774	854.0
1253.032667	858.5999756
1253.577503	848.7999878
1254.122284	856.2000122
1254.667008	847.4000244
1255.211676	850.7999878
1255.756288	855.2000122
1256.300843	855.0
1256.845342	849.5999756
1257.389785	851.7999878
1257.934172	847.2000122
1258.478502	854.2000122
1259.022776	857.0
1259.566994	857.2000122
1260.111156	866.5999756
1260.655261	866.5999756
1261.199311	850.5999756
1261.743304	856.2000122
1262.28724	856.4000244
1262.831121	859.4000244
1263.374945	866.0
1263.918713	871.5999756
1264.462425	888.7999878
1265.006081	887.2000122
1265.54968	879.5999756
1266.093223	858.4000244
1266.636711	856.2000122
1267.180141	853.5999756
1267.723516	846.4000244
1268.266835	861.0
1268.810097	856.0
1269.353303	854.4000244
1269.896453	851.0
1270.439547	853.2000122
1270.982584	850.5999756
1271.525566	853.0
1272.068491	856.2000122
1272.61136	852.7999878
1273.154173	849.0
1273.69693	853.4000244
1274.239631	850.7999878
1274.782275	854.4000244
1275.324864	855.4000244
1275.867396	857.5999756
1276.409872	854.4000244
1276.952292	855.0
1277.494656	855.5999756
1278.036964	850.4000244
1278.579215	854.4000244
1279.121411	857.0
1279.66355	858.7999878
1280.205634	851.5999756
1280.747661	857.0
1281.289632	857.7999878
1281.831547	862.2000122
1282.373406	868.7999878
1282.915209	883.5999756
1283.456955	920.4000244
1283.998646	1017.799988
1284.540281	1219.800049
1285.081859	1297.199951
1285.623381	1052.400024
1286.164848	920.4000244
1286.706258	886.7999878
1287.247612	868.5999756
1287.788911	859.2000122
1288.330153	854.5999756
1288.871339	859.0
1289.412469	849.5999756
1289.953543	848.0
1290.494561	853.5999756
1291.035523	852.7999878
1291.576428	850.5999756
1292.117278	847.5999756
1292.658072	844.4000244
1293.19881	853.0
1293.739492	849.5999756
1294.280118	846.4000244
1294.820687	840.4000244
1295.361201	849.2000122
1295.901659	848.4000244
1296.442061	852.7999878
1296.982406	852.5999756
1297.522696	849.2000122
1298.06293	853.2000122
1298.603108	847.0
1299.143229	843.0
1299.683295	840.0
1300.223305	848.7999878
1300.763259	840.5999756
1301.303157	848.4000244
1301.842999	852.4000244
1302.382785	844.4000244
1302.922515	852.5999756
1303.462189	851.0
1304.001807	853.0
1304.541369	853.2000122
1305.080875	847.2000122
1305.620326	844.0
1306.15972	853.5999756
1306.699058	844.0
1307.238341	846.7999878
1307.777567	846.0
1308.316738	847.5999756
1308.855853	851.0
1309.394912	850.4000244
1309.933915	844.7999878
1310.472862	851.7999878
1311.011753	845.5999756
1311.550588	850.0
1312.089367	848.5999756
1312.62809	844.7999878
1313.166758	837.0
1313.70537	848.0
1314.243925	845.5999756
1314.782425	852.7999878
1315.320869	846.5999756
1315.859257	847.0
1316.397589	845.5999756
1316.935866	845.4000244
1317.474086	844.2000122
1318.012251	843.4000244
1318.55036	846.7999878
1319.088413	850.4000244
1319.62641	840.2000122
1320.164351	842.2000122
1320.702236	840.0
1321.240066	851.0
1321.777839	847.2000122
1322.315557	839.4000244
1322.853219	843.0
1323.390826	841.7999878
1323.928376	846.2000122
1324.465871	847.2000122
1325.003309	844.5999756
1325.540692	844.2000122
1326.07802	841.4000244
1326.615291	843.5999756
1327.152506	844.7999878
1327.689666	845.7999878
1328.22677	843.5999756
1328.763818	842.7999878
1329.300811	845.5999756
1329.837747	845.0
1330.374628	845.4000244
1330.911453	838.5999756
1331.448222	835.5999756
1331.984936	844.0
1332.521594	845.0
1333.058196	836.4000244
1333.594742	845.0
1334.131232	847.7999878
1334.667667	835.4000244
1335.204046	830.0
1335.740369	840.4000244
1336.276637	841.0
1336.812848	831.0
1337.349004	842.2000122
1337.885105	847.4000244
1338.421149	843.5999756
1338.957138	843.4000244
1339.493071	845.2000122
1340.028949	844.5999756
1340.56477	843.5999756
1341.100536	848.0
1341.636246	843.5999756
1342.171901	845.7999878
1342.7075	841.2000122
1343.243043	849.2000122
1343.77853	844.7999878
1344.313962	844.7999878
1344.849338	845.2000122
1345.384659	843.4000244
1345.919923	841.5999756
1346.455133	839.4000244
1346.990286	837.5999756
1347.525384	836.5999756
1348.060426	843.5999756
1348.595412	840.0
1349.130343	836.2000122
1349.665218	840.7999878
1350.200037	842.2000122
1350.734801	842.2000122
1351.269509	837.0
1351.804162	847.5999756
1352.338758	843.7999878
1352.8733	842.5999756
1353.407785	840.4000244
1353.942215	845.5999756
1354.476589	844.5999756
1355.010908	838.4000244
1355.545171	843.0
1356.079379	842.5999756
1356.61353	840.5999756
1357.147627	836.5999756
1357.681667	844.5999756
1358.215652	843.0
1358.749582	833.7999878
1359.283456	836.5999756
1359.817274	835.2000122
1360.351037	840.4000244
1360.884744	835.5999756
1361.418395	844.7999878
1361.951991	830.5999756
1362.485531	836.5999756
1363.019016	844.2000122
1363.552445	838.7999878
1364.085819	841.7999878
1364.619137	832.0
1365.1524	839.4000244
1365.685607	844.7999878
1366.218758	836.7999878
1366.751854	835.4000244
1367.284894	835.4000244
1367.817879	835.5999756
1368.350808	843.7999878
1368.883682	838.2000122
1369.4165	848.5999756
1369.949263	854.0
1370.48197	848.5999756
1371.014622	838.0
1371.547218	838.7999878
1372.079758	834.7999878
1372.612244	843.2000122
1373.144673	836.4000244
1373.677047	845.4000244
1374.209366	834.7999878
1374.741629	835.7999878
1375.273836	832.2000122
1375.805989	837.4000244
1376.338085	841.2000122
1376.870126	828.2000122
1377.402112	832.5999756
1377.934042	833.4000244
1378.465917	839.5999756
1378.997736	841.4000244
1379.5295	833.7999878
1380.061208	837.0
1380.592861	828.7999878
1381.124459	844.0
1381.656	841.5999756
1382.187487	840.2000122
1382.718918	839.4000244
1383.250294	841.4000244
1383.781614	842.0
1384.312879	848.5999756
1384.844088	851.7999878
1385.375242	861.4000244
1385.90634	861.2000122
1386.437383	878.7999878
1386.968371	923.2000122
1387.499303	1087.800049
1388.03018	1554.599976
1388.561001	1593.800049
1389.091767	1088.400024
1389.622478	912.5999756
1390.153133	863.5999756
1390.683733	851.2000122
1391.214277	844.7999878
1391.744766	847.7999878
1392.2752	837.2000122
1392.805578	843.7999878
1393.335901	850.2000122
1393.866168	842.0
1394.396381	835.0
1394.926537	839.4000244
1395.456639	837.2000122
1395.986685	838.5999756
1396.516675	835.5999756
1397.046611	838.4000244
1397.576491	831.2000122
1398.106315	841.5999756
1398.636084	831.4000244
1399.165798	838.7999878
1399.695457	837.4000244
1400.22506	842.4000244
1400.754608	835.2000122
1401.284101	841.2000122
1401.813538	833.0
1402.34292	836.2000122
1402.872247	834.5999756
1403.401518	833.4000244
1403.930734	837.5999756
1404.459895	838.7999878
1404.989	842.7999878
1405.51805	842.7999878
1406.047045	837.0
1406.575984	839.5999756
1407.104869	835.5999756
1407.633697	835.4000244
1408.162471	841.4000244
1408.691189	852.2000122
1409.219852	874.5999756
1409.74846	881.7999878
1410.277013	871.7999878
1410.80551	848.4000244
1411.333952	841.5999756
1411.862339	832.7999878
1412.39067	840.0
1412.918946	834.5999756
1413.447167	835.4000244
1413.975333	838.7999878
1414.503444	834.7999878
1415.031499	836.4000244
1415.559499	847.5999756
1416.087444	835.5999756
1416.615333	838.0
1417.143167	833.4000244
1417.670947	834.2000122
1418.19867	834.0
1418.726339	833.2000122
1419.253952	834.5999756
1419.781511	834.7999878
1420.309014	830.4000244
1420.836461	836.4000244
1421.363854	828.5999756
1421.891191	830.5999756
1422.418474	833.7999878
1422.945701	833.5999756
1423.472872	834.0
1423.999989	835.0
1424.52705	832.5999756
1425.054057	835.2000122
1425.581008	836.5999756
1426.107904	836.2000122
1426.634745	830.2000122
1427.16153	828.2000122
1427.688261	832.0
1428.214936	838.0
1428.741556	829.2000122
1429.268121	836.4000244
1429.794631	837.4000244
1430.321085	834.7999878
1430.847485	833.7999878
1431.373829	825.0
1431.900118	829.4000244
1432.426353	829.5999756
1432.952532	837.2000122
1433.478655	831.5999756
1434.004724	824.7999878
1434.530738	830.5999756
1435.056696	835.2000122
1435.5826	831.7999878
1436.108448	827.2000122
1436.634241	825.0
1437.159979	827.2000122
1437.685662	832.4000244
1438.21129	836.5999756
1438.736863	831.7999878
1439.262381	826.5999756
1439.787843	834.2000122
1440.313251	831.2000122
1440.838603	830.0
1441.3639	828.7999878
1441.889143	831.2000122
1442.41433	829.0
1442.939462	831.4000244
1443.464539	817.7999878
1443.989561	833.4000244
1444.514528	827.7999878
1445.03944	824.4000244
1445.564297	830.7999878
1446.089099	826.7999878
1446.613846	833.2000122
1447.138537	829.5999756
1447.663174	823.7999878
1448.187756	829.5999756
1448.712282	834.4000244
1449.236754	831.0
1449.761171	826.4000244
1450.285532	833.2000122
1450.809839	829.5999756
1451.33409	829.2000122
1451.858287	829.5999756
1452.382428	832.0
1452.906515	825.5999756
1453.430546	827.7999878
1453.954523	831.5999756
1454.478444	823.2000122
1455.002311	828.0
1455.526123	829.4000244
1456.049879	827.4000244
1456.573581	829.4000244
1457.097227	826.7999878
1457.620819	821.7999878
1458.144356	826.4000244
1458.667837	831.2000122
1459.191264	819.0
1459.714636	825.2000122
1460.237952	823.0
1460.761214	816.0
1461.284421	831.5999756
1461.807573	828.2000122
1462.33067	833.7999878
1462.853712	831.0
1463.376699	827.7999878
1463.899632	827.0
1464.422509	825.4000244
1464.945331	821.4000244
1465.468099	825.5999756
1465.990811	820.5999756
1466.513469	824.5999756
1467.036071	822.7999878
1467.558619	824.2000122
1468.081112	828.2000122
1468.60355	829.7999878
1469.125933	831.0
1469.648261	831.0
1470.170534	823.2000122
1470.692752	831.2000122
1471.214916	825.5999756
1471.737024	826.7999878
1472.259078	827.2000122
1472.781077	823.0
1473.303021	826.7999878
1473.82491	826.5999756
1474.346744	823.7999878
1474.868523	817.7999878
1475.390248	823.7999878
1475.911917	829.0
1476.433532	818.2000122
1476.955092	821.4000244
1477.476597	825.7999878
1477.998047	828.5999756
1478.519442	826.0
1479.040783	819.5999756
1479.562068	826.2000122
1480.083299	826.5999756
1480.604475	815.0
1481.125596	823.7999878
1481.646663	827.2000122
1482.167674	827.4000244
1482.688631	824.0
1483.209533	827.7999878
1483.73038	823.7999878
1484.251172	820.7999878
1484.771909	831.2000122
1485.292592	820.2000122
1485.81322	819.4000244
1486.333793	832.2000122
1486.854311	820.4000244
1487.374775	818.2000122
1487.895183	819.2000122
1488.415537	821.4000244
1488.935836	824.7999878
1489.456081	818.5999756
1489.97627	824.0
1490.496405	819.0
1491.016485	821.0
1491.536511	820.0
1492.056481	819.7999878
1492.576397	817.5999756
1493.096258	818.0
1493.616064	814.5999756
1494.135816	822.0
1494.655513	821.2000122
1495.175155	826.5999756
1495.694742	819.5999756
1496.214274	817.0
1496.733752	820.4000244
1497.253175	814.5999756
1497.772544	819.4000244
1498.291858	824.2000122
1498.811116	821.0
1499.330321	818.7999878
1499.84947	822.0
1500.368565	824.0
1500.887605	821.2000122
1501.406591	822.7999878
1501.925521	818.2000122
1502.444397	818.7999878
1502.963219	824.5999756
1503.481985	820.7999878
1504.000697	821.5999756
1504.519355	814.5999756
1505.037957	822.0
1505.556505	821.7999878
1506.074999	826.5999756
1506.593437	822.2000122
1507.111821	816.2000122
1507.63015	808.2000122
1508.148425	809.7999878
1508.666645	817.7999878
1509.18481	823.4000244
1509.702921	821.7999878
1510.220977	821.4000244
1510.738979	825.5999756
1511.256925	820.5999756
1511.774817	817.5999756
1512.292655	818.5999756
1512.810438	819.5999756
1513.328166	820.7999878
1513.84584	823.7999878
1514.363459	818.2000122
1514.881023	815.2000122
1515.398533	815.5999756
1515.915988	820.7999878
1516.433389	821.5999756
1516.950734	821.4000244
1517.468026	815.5999756
1517.985263	821.0
1518.502445	820.7999878
1519.019572	820.0
1519.536645	813.4000244
1520.053664	820.0
1520.570628	821.7999878
1521.087537	821.4000244
1521.604392	821.7999878
1522.121192	824.2000122
1522.637937	816.7999878
1523.154628	827.0
1523.671265	819.0
1524.187847	816.2000122
1524.704374	817.7999878
1525.220847	819.2000122
1525.737265	818.5999756
1526.253629	820.7999878
1526.769938	820.2000122
1527.286192	825.7999878
1527.802392	818.7999878
1528.318538	815.7999878
1528.834629	822.4000244
1529.350666	827.4000244
1529.866648	818.4000244
1530.382575	816.4000244
1530.898448	819.5999756
1531.414266	824.2000122
1531.93003	825.7999878
1532.44574	817.4000244
1532.961395	814.5999756
1533.476995	820.7999878
1533.992541	817.7999878
1534.508033	808.7999878
1535.02347	813.2000122
1535.538852	810.4000244
1536.05418	811.7999878
1536.569454	822.5999756
1537.084673	810.4000244
1537.599837	817.4000244
1538.114947	812.5999756
1538.630003	818.0
1539.145004	817.0
1539.659951	814.2000122
1540.174843	820.0
1540.689681	820.2000122
1541.204465	815.5999756
1541.719194	817.2000122
1542.233868	816.4000244
1542.748488	815.0
1543.263054	821.5999756
1543.777565	817.0
1544.292022	816.5999756
1544.806424	821.4000244
1545.320772	826.2000122
1545.835066	818.0
1546.349305	819.0
1546.863489	820.4000244
1547.37762	819.4000244
1547.891696	819.5999756
1548.405717	820.0
1548.919684	812.2000122
1549.433597	818.7999878
1549.947455	826.4000244
1550.461259	815.5999756
1550.975009	823.5999756
1551.488704	816.4000244
1552.002345	822.4000244
1552.515931	817.0
1553.029463	819.2000122
1553.542941	813.5999756
1554.056364	817.0
1554.569733	818.5999756
1555.083048	814.7999878
1555.596308	822.0
1556.109514	818.0
1556.622665	816.7999878
1557.135762	812.7999878
1557.648805	810.5999756
1558.161794	815.7999878
1558.674728	821.7999878
1559.187608	825.2000122
1559.700433	814.5999756
1560.213205	814.2000122
1560.725921	811.2000122
1561.238584	817.0
1561.751192	815.4000244
1562.263746	820.7999878
1562.776246	818.0
1563.288691	815.0
1563.801082	821.7999878
1564.313419	814.7999878
1564.825701	817.5999756
1565.337929	814.5999756
1565.850103	818.5999756
1566.362223	830.2000122
1566.874288	819.4000244
1567.386299	818.0
1567.898256	824.5999756
1568.410158	818.2000122
1568.922007	819.7999878
1569.4338	810.7999878
1569.94554	818.0
1570.457226	819.2000122
1570.968857	815.4000244
1571.480434	819.2000122
1571.991956	822.0
1572.503425	810.2000122
1573.014839	816.2000122
1573.526199	816.5999756
1574.037505	820.2000122
1574.548756	816.7999878
1575.059953	809.4000244
1575.571096	814.7999878
1576.082185	814.5999756
1576.59322	816.0
1577.1042	817.4000244
1577.615126	817.5999756
1578.125998	814.7999878
1578.636816	819.5999756
1579.14758	815.0
1579.658289	817.4000244
1580.168944	820.7999878
1580.679545	815.0
1581.190092	817.5999756
1581.700585	817.5999756
1582.211023	811.5999756
1582.721407	811.0
1583.231737	813.5999756
1583.742013	818.5999756
1584.252235	810.4000244
1584.762403	810.0
1585.272516	811.2000122
1585.782575	811.0
1586.292581	818.7999878
1586.802532	807.7999878
1587.312428	810.5999756
1587.822271	822.0
1588.33206	822.2000122
1588.841794	818.0
1589.351474	815.5999756
1589.8611	817.0
1590.370672	815.4000244
1590.88019	815.0
1591.389654	816.4000244
1591.899064	813.2000122
1592.408419	819.4000244
