1042.452273	952.5999756
1043.018714	950.5999756
1043.585098	946.4000244
1044.151424	950.0
1044.717692	937.4000244
1045.283903	937.5999756
1045.850056	940.2000122
1046.416151	945.5999756
1046.982188	948.2000122
1047.548167	935.0
1048.114089	944.4000244
1048.679953	941.5999756
1049.24576	949.4000244
1049.811509	938.5999756
1050.3772	937.4000244
1050.942833	934.7999878
1051.508408	943.2000122
1052.073926	930.0
1052.639387	935.5999756
1053.204789	944.0
1053.770134	935.5999756
1054.335421	943.7999878
1054.900651	935.5999756
1055.465823	933.2000122
1056.030937	934.7999878
1056.595993	935.2000122
1057.160992	930.4000244
1057.725934	919.7999878
1058.290817	938.4000244
1058.855643	940.0
1059.420411	925.4000244
1059.985122	930.5999756
1060.549775	922.0
1061.114371	930.7999878
1061.678908	933.4000244
1062.243389	936.2000122
1062.807811	930.4000244
1063.372176	937.2000122
1063.936483	932.4000244
1064.500733	931.5999756
1065.064925	925.2000122
1065.62906	928.7999878
1066.193137	934.5999756
1066.757156	926.0
1067.321118	928.7999878
1067.885022	922.2000122
1068.448869	924.5999756
1069.012658	930.2000122
1069.57639	930.0
1070.140063	946.4000244
1070.70368	931.0
1071.267239	932.5999756
1071.83074	933.2000122
1072.394184	926.4000244
1072.95757	934.4000244
1073.520899	926.2000122
1074.08417	927.4000244
1074.647383	934.5999756
1075.21054	935.5999756
1075.773638	929.7999878
1076.336679	926.4000244
1076.899663	925.4000244
1077.462589	925.7999878
1078.025457	928.2000122
1078.588268	923.2000122
1079.151022	917.0
1079.713718	926.0
1080.276356	924.4000244
1080.838937	917.2000122
1081.401461	929.0
1081.963927	930.7999878
1082.526336	914.4000244
1083.088687	928.5999756
1083.650981	930.5999756
1084.213217	925.2000122
1084.775396	922.4000244
1085.337517	924.0
1085.899581	929.5999756
1086.461587	927.4000244
1087.023536	925.2000122
1087.585428	923.4000244
1088.147262	913.0
1088.709039	925.5999756
1089.270758	918.0
1089.83242	927.4000244
1090.394024	926.7999878
1090.955571	917.0
1091.517061	916.7999878
1092.078493	918.0
1092.639868	926.7999878
1093.201185	925.2000122
1093.762445	921.7999878
1094.323648	921.2000122
1094.884793	919.0
1095.445881	924.5999756
1096.006911	925.2000122
1096.567884	926.2000122
1097.1288	926.0
1097.689659	922.2000122
1098.25046	910.5999756
1098.811203	913.7999878
1099.37189	916.0
1099.932518	917.2000122
1100.49309	920.7999878
1101.053604	911.5999756
1101.614061	913.5999756
1102.174461	919.0
1102.734803	907.7999878
1103.295088	916.4000244
1103.855316	912.4000244
1104.415486	918.4000244
1104.975599	919.7999878
1105.535655	913.4000244
1106.095653	917.0
1106.655594	914.7999878
1107.215478	913.5999756
1107.775305	911.7999878
1108.335074	909.2000122
1108.894786	916.7999878
1109.45444	912.0
1110.014038	920.2000122
1110.573578	919.5999756
1111.133061	919.5999756
1111.692486	910.2000122
1112.251854	912.5999756
1112.811165	911.2000122
1113.370419	915.2000122
1113.929616	908.4000244
1114.488755	917.0
1115.047837	905.4000244
1115.606862	915.5999756
1116.16583	903.4000244
1116.72474	908.2000122
1117.283593	914.2000122
1117.842389	897.5999756
1118.401128	903.4000244
1118.959809	915.7999878
1119.518433	913.4000244
1120.077	901.5999756
1120.63551	908.4000244
1121.193963	911.4000244
1121.752358	904.0
1122.310697	901.5999756
1122.868978	901.4000244
1123.427202	910.2000122
1123.985368	909.7999878
1124.543478	904.2000122
1125.10153	908.5999756
1125.659526	910.5999756
1126.217464	912.7999878
1126.775345	907.4000244
1127.333168	906.0
1127.890935	908.2000122
1128.448644	914.2000122
1129.006297	906.7999878
1129.563892	903.2000122
1130.12143	912.2000122
1130.678911	911.2000122
1131.236335	908.4000244
1131.793701	902.4000244
1132.351011	895.5999756
1132.908263	903.2000122
1133.465458	906.7999878
1134.022597	904.7999878
1134.579678	906.5999756
1135.136702	916.5999756
1135.693669	901.5999756
1136.250578	904.0
1136.807431	900.5999756
1137.364227	905.7999878
1137.920965	904.2000122
1138.477647	903.5999756
1139.034271	897.7999878
1139.590839	895.5999756
1140.147349	909.4000244
1140.703802	902.2000122
1141.260198	912.4000244
1141.816537	906.4000244
1142.37282	900.7999878
1142.929045	909.2000122
1143.485213	904.7999878
1144.041323	900.4000244
1144.597377	897.4000244
1145.153374	909.7999878
1145.709314	920.5999756
1146.265197	910.0
1146.821023	916.7999878
1147.376792	906.5999756
1147.932503	902.5999756
1148.488158	907.7999878
1149.043756	909.5999756
1149.599297	920.4000244
1150.154781	944.2000122
1150.710207	934.7999878
1151.265577	908.4000244
1151.82089	902.4000244
1152.376146	901.5999756
1152.931345	900.0
1153.486487	907.2000122
1154.041572	910.4000244
1154.5966	900.7999878
1155.151571	906.2000122
1155.706485	903.0
1156.261342	910.5999756
1156.816142	898.7999878
1157.370885	903.5999756
1157.925572	897.4000244
1158.480201	908.2000122
1159.034774	907.7999878
1159.589289	909.5999756
1160.143748	905.5999756
1160.698149	899.5999756
1161.252494	907.7999878
1161.806782	901.5999756
1162.361013	911.7999878
1162.915187	907.7999878
1163.469304	913.4000244
1164.023364	900.5999756
1164.577368	905.7999878
1165.131314	901.4000244
1165.685204	903.2000122
1166.239036	904.7999878
1166.792812	903.5999756
1167.346531	901.5999756
1167.900193	906.5999756
1168.453798	900.7999878
1169.007347	907.7999878
1169.560838	910.7999878
1170.114273	902.0
1170.66765	898.2000122
1171.220971	903.7999878
1171.774235	897.4000244
1172.327443	895.0
1172.880593	899.7999878
1173.433687	894.4000244
1173.986723	899.5999756
1174.539703	894.2000122
1175.092626	903.4000244
1175.645493	897.4000244
1176.198302	893.0
1176.751055	899.5999756
1177.303751	906.7999878
1177.85639	902.7999878
1178.408972	901.2000122
1178.961498	896.2000122
1179.513966	893.2000122
1180.066378	894.7999878
1180.618733	897.2000122
1181.171032	898.5999756
1181.723273	904.5999756
1182.275458	904.2000122
1182.827586	896.0
1183.379657	892.2000122
1183.931672	896.0
1184.48363	897.0
1185.035531	896.2000122
1185.587375	887.2000122
1186.139162	889.0
1186.690893	894.2000122
1187.242567	891.4000244
1187.794184	905.2000122
1188.345745	899.7999878
1188.897249	901.0
1189.448696	899.0
1190.000086	904.4000244
1190.55142	898.0
1191.102697	901.7999878
1191.653918	896.5999756
1192.205081	896.5999756
1192.756188	896.2000122
1193.307238	912.7999878
1193.858232	893.4000244
1194.409169	885.2000122
1194.960049	893.0
1195.510872	903.2000122
1196.061639	904.5999756
1196.612349	900.0
1197.163003	899.4000244
1197.713599	889.2000122
1198.264139	903.7999878
1198.814623	891.7999878
1199.36505	898.0
1199.91542	897.2000122
1200.465734	893.0
1201.01599	898.0
1201.566191	893.7999878
1202.116334	896.7999878
1202.666421	895.0
1203.216452	899.0
1203.766425	901.0
1204.316343	885.5999756
1204.866203	893.0
1205.416007	888.4000244
1205.965754	893.4000244
1206.515445	895.0
1207.065079	890.0
1207.614657	894.5999756
1208.164177	886.7999878
1208.713642	895.5999756
1209.26305	882.5999756
1209.812401	885.5999756
1210.361695	904.4000244
1210.910933	887.2000122
1211.460115	902.2000122
1212.00924	887.2000122
1212.558308	890.4000244
1213.10732	888.7999878
1213.656275	887.2000122
1214.205174	887.7999878
1214.754016	890.4000244
1215.302801	893.4000244
1215.85153	894.7999878
1216.400203	887.0
1216.948819	883.5999756
1217.497378	884.5999756
1218.045881	891.0
1218.594327	895.4000244
1219.142717	879.2000122
1219.691051	886.4000244
1220.239327	894.4000244
1220.787548	889.2000122
1221.335712	892.7999878
1221.883819	891.5999756
1222.43187	883.2000122
1222.979864	889.2000122
1223.527802	889.4000244
1224.075683	884.7999878
1224.623508	888.2000122
1225.171277	881.5999756
1225.718989	887.5999756
1226.266644	887.5999756
1226.814243	885.2000122
1227.361786	883.5999756
1227.909272	889.7999878
1228.456702	885.5999756
1229.004075	894.5999756
1229.551392	890.2000122
1230.098652	891.5999756
1230.645856	887.0
1231.193003	890.2000122
1231.740094	884.4000244
1232.287129	889.7999878
1232.834107	891.0
1233.381029	893.0
1233.927894	882.5999756
1234.474703	886.4000244
1235.021455	885.5999756
1235.568151	886.2000122
1236.114791	893.5999756
1236.661374	887.2000122
1237.207901	874.4000244
1237.754372	880.2000122
1238.300786	882.4000244
1238.847144	891.0
1239.393445	884.4000244
1239.93969	891.2000122
1240.485879	885.2000122
1241.032011	889.4000244
1241.578087	884.7999878
1242.124106	883.7999878
1242.67007	880.7999878
1243.215976	888.2000122
1243.761827	888.0
1244.307621	885.4000244
1244.853359	891.7999878
1245.39904	886.7999878
1245.944665	883.2000122
1246.490234	889.5999756
1247.035746	881.2000122
1247.581203	886.4000244
1248.126602	891.0
1248.671946	887.2000122
1249.217233	889.0
1249.762464	877.4000244
1250.307638	882.7999878
1250.852757	891.4000244
1251.397819	878.0
1251.942824	882.2000122
1252.487774	885.0
1253.032667	882.7999878
1253.577503	877.4000244
1254.122284	888.2000122
1254.667008	889.5999756
1255.211676	884.2000122
1255.756288	886.0
1256.300843	883.2000122
1256.845342	884.4000244
1257.389785	884.7999878
1257.934172	879.4000244
1258.478502	894.4000244
1259.022776	878.2000122
1259.566994	876.7999878
1260.111156	892.2000122
1260.655261	879.5999756
1261.199311	883.0
1261.743304	884.2000122
1262.28724	878.2000122
1262.831121	883.5999756
1263.374945	878.7999878
1263.918713	883.7999878
1264.462425	887.5999756
1265.006081	897.5999756
1265.54968	889.2000122
1266.093223	880.2000122
1266.636711	882.7999878
1267.180141	869.0
1267.723516	876.2000122
1268.266835	880.5999756
1268.810097	883.7999878
1269.353303	880.0
1269.896453	874.4000244
1270.439547	886.5999756
1270.982584	882.4000244
1271.525566	879.2000122
1272.068491	881.0
1272.61136	888.2000122
1273.154173	875.7999878
1273.69693	879.2000122
1274.239631	874.7999878
1274.782275	879.5999756
1275.324864	879.7999878
1275.867396	875.2000122
1276.409872	876.0
1276.952292	870.5999756
1277.494656	883.0
1278.036964	874.5999756
1278.579215	876.2000122
1279.121411	871.0
1279.66355	879.0
1280.205634	879.0
1280.747661	876.0
1281.289632	873.5999756
1281.831547	878.2000122
1282.373406	882.5999756
1282.915209	885.5999756
1283.456955	891.7999878
1283.998646	916.4000244
1284.540281	962.0
1285.081859	983.2000122
1285.623381	934.0
1286.164848	892.4000244
1286.706258	880.2000122
1287.247612	882.0
1287.788911	880.0
1288.330153	886.7999878
1288.871339	882.4000244
1289.412469	879.5999756
1289.953543	878.0
1290.494561	874.2000122
1291.035523	875.7999878
1291.576428	877.2000122
1292.117278	877.2000122
1292.658072	882.5999756
1293.19881	881.4000244
1293.739492	875.5999756
1294.280118	879.0
1294.820687	874.2000122
1295.361201	873.7999878
1295.901659	872.4000244
1296.442061	879.5999756
1296.982406	872.7999878
1297.522696	872.7999878
1298.06293	865.5999756
1298.603108	873.0
1299.143229	874.0
1299.683295	878.0
1300.223305	876.4000244
1300.763259	866.7999878
1301.303157	865.4000244
1301.842999	876.0
1302.382785	870.7999878
1302.922515	876.7999878
1303.462189	874.7999878
1304.001807	873.0
1304.541369	872.7999878
1305.080875	872.4000244
1305.620326	867.4000244
1306.15972	873.4000244
1306.699058	875.7999878
1307.238341	869.5999756
1307.777567	879.5999756
1308.316738	868.4000244
1308.855853	873.7999878
1309.394912	868.5999756
1309.933915	879.0
1310.472862	876.2000122
1311.011753	867.4000244
1311.550588	869.2000122
1312.089367	874.2000122
1312.62809	867.5999756
1313.166758	875.2000122
1313.70537	871.0
1314.243925	870.7999878
1314.782425	871.4000244
1315.320869	878.2000122
1315.859257	870.7999878
1316.397589	858.0
1316.935866	871.5999756
1317.474086	864.7999878
1318.012251	872.7999878
1318.55036	869.4000244
1319.088413	871.5999756
1319.62641	870.0
1320.164351	878.7999878
1320.702236	870.7999878
1321.240066	863.4000244
1321.777839	868.7999878
1322.315557	877.2000122
1322.853219	866.7999878
1323.390826	867.2000122
1323.928376	865.7999878
1324.465871	872.2000122
1325.003309	874.0
1325.540692	875.0
1326.07802	865.5999756
1326.615291	877.0
1327.152506	865.7999878
1327.689666	867.0
1328.22677	868.0
1328.763818	866.4000244
1329.300811	868.4000244
1329.837747	864.4000244
1330.374628	863.5999756
1330.911453	868.5999756
1331.448222	872.2000122
1331.984936	868.7999878
1332.521594	869.2000122
1333.058196	856.7999878
1333.594742	871.5999756
1334.131232	860.7999878
1334.667667	869.5999756
1335.204046	866.0
1335.740369	872.0
1336.276637	869.0
1336.812848	861.7999878
1337.349004	873.5999756
1337.885105	870.7999878
1338.421149	868.4000244
1338.957138	869.0
1339.493071	870.5999756
1340.028949	867.2000122
1340.56477	863.4000244
1341.100536	864.7999878
1341.636246	866.4000244
1342.171901	864.4000244
1342.7075	859.5999756
1343.243043	861.7999878
1343.77853	868.4000244
1344.313962	855.4000244
1344.849338	858.2000122
1345.384659	864.0
1345.919923	864.7999878
1346.455133	871.7999878
1346.990286	866.5999756
1347.525384	870.2000122
1348.060426	878.0
1348.595412	862.4000244
1349.130343	862.4000244
1349.665218	865.2000122
1350.200037	866.0
1350.734801	866.2000122
1351.269509	872.7999878
1351.804162	865.4000244
1352.338758	865.7999878
1352.8733	864.4000244
1353.407785	864.7999878
1353.942215	859.4000244
1354.476589	858.2000122
1355.010908	857.0
1355.545171	861.7999878
1356.079379	870.5999756
1356.61353	853.4000244
1357.147627	865.0
1357.681667	863.4000244
1358.215652	862.0
1358.749582	859.0
1359.283456	861.2000122
1359.817274	862.7999878
1360.351037	868.2000122
1360.884744	864.0
1361.418395	873.7999878
1361.951991	859.7999878
1362.485531	857.2000122
1363.019016	870.0
1363.552445	863.7999878
1364.085819	868.4000244
1364.619137	863.5999756
1365.1524	858.4000244
1365.685607	859.0
1366.218758	861.7999878
1366.751854	854.5999756
1367.284894	857.7999878
1367.817879	859.7999878
1368.350808	865.2000122
1368.883682	855.2000122
1369.4165	860.5999756
1369.949263	864.2000122
1370.48197	864.4000244
1371.014622	870.2000122
1371.547218	859.0
1372.079758	867.0
1372.612244	860.0
1373.144673	860.5999756
1373.677047	857.4000244
1374.209366	860.7999878
1374.741629	856.0
1375.273836	867.0
1375.805989	865.4000244
1376.338085	861.7999878
1376.870126	861.4000244
1377.402112	854.7999878
1377.934042	858.5999756
1378.465917	863.7999878
1378.997736	865.4000244
1379.5295	853.7999878
1380.061208	862.7999878
1380.592861	863.0
1381.124459	862.0
1381.656	859.0
1382.187487	861.7999878
1382.718918	863.5999756
1383.250294	858.0
1383.781614	860.0
1384.312879	865.4000244
1384.844088	859.4000244
1385.375242	866.0
1385.90634	866.4000244
1386.437383	872.2000122
1386.968371	883.4000244
1387.499303	911.4000244
1388.03018	1028.199951
1388.561001	1045.800049
1389.091767	913.7999878
1389.622478	877.5999756
1390.153133	873.4000244
1390.683733	866.5999756
1391.214277	864.4000244
1391.744766	853.2000122
1392.2752	861.0
1392.805578	853.5999756
1393.335901	862.2000122
1393.866168	859.4000244
1394.396381	863.2000122
1394.926537	862.2000122
1395.456639	862.2000122
1395.986685	851.4000244
1396.516675	859.0
1397.046611	847.2000122
1397.576491	857.4000244
1398.106315	854.0
1398.636084	862.0
1399.165798	856.0
1399.695457	856.0
1400.22506	859.5999756
1400.754608	860.4000244
1401.284101	853.7999878
1401.813538	857.5999756
1402.34292	865.4000244
1402.872247	853.7999878
1403.401518	862.4000244
1403.930734	867.4000244
1404.459895	856.2000122
1404.989	855.5999756
1405.51805	856.2000122
1406.047045	865.5999756
1406.575984	852.4000244
1407.104869	857.2000122
1407.633697	852.2000122
1408.162471	858.5999756
1408.691189	866.7999878
1409.219852	870.0
1409.74846	875.2000122
1410.277013	869.7999878
1410.80551	860.2000122
1411.333952	857.7999878
1411.862339	856.4000244
1412.39067	853.7999878
1412.918946	851.7999878
1413.447167	855.5999756
1413.975333	854.7999878
1414.503444	854.7999878
1415.031499	854.0
1416.615333	859.7999878
1417.143167	850.5999756
1417.670947	851.0
1418.19867	857.2000122
1418.726339	858.2000122
1419.253952	855.5999756
1419.781511	847.0
1420.309014	857.7999878
1420.836461	859.7999878
1421.363854	850.4000244
1421.891191	851.7999878
1422.418474	856.7999878
1422.945701	850.0
1423.472872	853.0
1423.999989	859.5999756
1424.52705	851.5999756
1425.054057	852.4000244
1425.581008	858.2000122
1426.107904	854.2000122
1426.634745	854.7999878
1427.16153	858.2000122
1427.688261	854.7999878
1428.214936	860.0
1428.741556	852.0
1429.268121	858.5999756
1429.794631	859.2000122
1430.321085	852.4000244
1430.847485	863.0
1431.373829	852.5999756
1431.900118	850.0
1432.426353	854.2000122
1432.952532	850.0
1433.478655	854.2000122
1434.004724	854.0
1434.530738	850.2000122
1435.056696	852.7999878
1435.5826	854.2000122
1436.108448	851.4000244
1436.634241	850.2000122
1437.159979	852.4000244
1437.685662	856.2000122
1438.21129	842.2000122
1438.736863	850.2000122
1439.262381	843.0
1439.787843	844.5999756
1440.313251	847.5999756
1440.838603	853.4000244
1441.3639	855.5999756
1441.889143	852.4000244
1442.41433	852.7999878
1442.939462	855.4000244
1443.464539	851.5999756
1443.989561	850.5999756
1444.514528	858.5999756
1445.03944	851.7999878
1445.564297	856.0
1446.089099	856.0
1446.613846	848.7999878
1447.138537	857.4000244
1447.663174	852.5999756
1448.187756	845.0
1448.712282	848.0
1449.236754	851.7999878
1449.761171	854.7999878
1450.285532	841.2000122
1450.809839	850.0
1451.33409	857.0
1451.858287	852.7999878
1452.382428	852.5999756
1452.906515	851.0
1453.430546	851.7999878
1453.954523	855.5999756
1454.478444	853.4000244
1455.002311	842.2000122
1455.526123	849.5999756
1456.049879	849.0
1456.573581	848.5999756
1457.097227	853.7999878
1457.620819	849.7999878
1458.144356	846.7999878
1458.667837	854.5999756
1459.191264	847.4000244
1459.714636	852.7999878
1460.237952	855.2000122
1460.761214	846.7999878
1461.284421	847.5999756
1461.807573	850.5999756
1462.33067	856.5999756
1462.853712	848.4000244
1463.376699	844.4000244
1463.899632	846.5999756
1464.422509	848.0
1464.945331	843.5999756
1465.468099	846.7999878
1465.990811	845.0
1466.513469	851.7999878
1467.036071	847.0
1467.558619	850.2000122
1468.081112	849.4000244
1468.60355	856.7999878
1469.125933	846.2000122
1469.648261	843.4000244
1470.170534	841.0
1470.692752	849.0
1471.214916	847.2000122
1471.737024	847.5999756
1472.259078	847.7999878
1472.781077	848.4000244
1473.303021	842.4000244
1473.82491	850.4000244
1474.346744	846.7999878
1474.868523	843.0
1475.390248	839.4000244
1475.911917	845.5999756
1476.433532	844.4000244
1476.955092	850.2000122
1477.476597	848.7999878
1477.998047	845.4000244
1478.519442	843.5999756
1479.040783	848.4000244
1479.562068	851.2000122
1480.083299	845.5999756
1480.604475	848.0
1481.125596	844.2000122
1481.646663	848.5999756
1482.167674	847.7999878
1482.688631	843.0
1483.209533	840.2000122
1483.73038	847.0
1484.251172	842.7999878
1484.771909	849.5999756
1485.292592	846.2000122
1485.81322	849.2000122
1486.333793	840.4000244
1486.854311	844.4000244
1487.374775	841.2000122
1487.895183	848.4000244
1488.415537	849.4000244
1488.935836	845.2000122
1489.456081	845.4000244
1489.97627	844.4000244
1490.496405	846.7999878
1491.016485	847.5999756
1491.536511	846.0
1492.056481	845.0
1492.576397	845.4000244
1493.096258	843.4000244
1493.616064	836.7999878
1494.135816	844.5999756
1494.655513	842.0
1495.175155	844.4000244
1495.694742	847.0
1496.214274	838.2000122
1496.733752	838.5999756
1497.253175	845.2000122
1497.772544	840.0
1498.291858	844.2000122
1498.811116	850.4000244
1499.330321	833.2000122
1499.84947	849.7999878
1500.368565	831.2000122
1500.887605	846.7999878
1501.406591	845.2000122
1501.925521	842.0
1502.444397	847.2000122
1502.963219	843.5999756
1503.481985	844.5999756
1504.000697	843.5999756
1504.519355	844.7999878
1505.037957	840.5999756
1505.556505	840.0
1506.074999	836.7999878
1506.593437	846.7999878
1507.111821	851.2000122
1507.63015	843.4000244
1508.148425	838.2000122
1508.666645	842.5999756
1509.18481	838.7999878
1509.702921	849.0
1510.220977	843.4000244
1510.738979	850.4000244
1511.256925	848.5999756
1511.774817	840.5999756
1512.292655	847.7999878
1512.810438	833.0
1513.328166	838.5999756
1513.84584	849.4000244
1514.363459	842.0
1514.881023	841.2000122
1515.398533	838.7999878
1515.915988	833.4000244
1516.433389	836.4000244
1516.950734	836.4000244
1517.468026	842.4000244
1517.985263	837.7999878
1518.502445	835.2000122
1519.019572	842.2000122
1519.536645	840.2000122
1520.053664	849.0
1520.570628	839.2000122
1521.087537	839.4000244
1521.604392	837.4000244
1522.121192	844.0
1522.637937	841.7999878
1523.154628	835.5999756
1523.671265	842.4000244
1524.187847	838.0
1524.704374	837.2000122
1525.220847	833.5999756
1525.737265	836.7999878
1526.253629	842.4000244
1526.769938	843.7999878
1527.286192	840.5999756
1527.802392	835.2000122
1528.318538	840.2000122
1528.834629	837.5999756
1529.350666	845.5999756
1529.866648	842.0
1530.382575	842.7999878
1530.898448	840.5999756
1531.414266	845.0
1531.93003	834.2000122
1532.44574	843.5999756
1532.961395	841.2000122
1533.476995	841.5999756
1533.992541	842.7999878
1534.508033	845.2000122
1535.02347	835.5999756
1535.538852	843.2000122
1536.05418	834.4000244
1536.569454	839.0
1537.084673	836.2000122
1537.599837	833.5999756
1538.114947	836.0
1538.630003	842.0
1539.145004	840.0
1539.659951	838.7999878
1540.174843	829.7999878
1540.689681	846.4000244
1541.204465	849.2000122
1541.719194	835.2000122
1542.233868	836.4000244
1542.748488	843.2000122
1543.263054	842.4000244
1543.777565	838.0
1544.292022	839.7999878
1544.806424	837.5999756
1545.320772	837.5999756
1545.835066	836.4000244
1546.349305	841.4000244
1546.863489	838.0
1547.37762	838.4000244
1547.891696	834.7999878
1548.405717	837.5999756
1548.919684	835.2000122
1549.433597	838.4000244
1549.947455	838.4000244
1550.461259	845.7999878
1550.975009	837.0
1551.488704	836.4000244
1552.002345	835.0
1552.515931	837.7999878
1553.029463	837.0
1553.542941	832.4000244
1554.056364	840.5999756
1554.569733	836.5999756
1555.083048	838.4000244
1555.596308	835.2000122
1556.109514	836.7999878
1556.622665	835.2000122
1557.135762	841.0
1557.648805	843.2000122
1558.161794	836.2000122
1558.674728	833.2000122
1559.187608	839.4000244
1559.700433	848.7999878
1560.213205	833.7999878
1560.725921	839.5999756
1561.238584	837.4000244
1561.751192	837.2000122
1562.263746	837.0
1562.776246	837.4000244
1563.288691	837.2000122
1563.801082	832.4000244
1564.313419	838.4000244
1564.825701	836.7999878
1565.337929	842.2000122
1565.850103	838.5999756
1566.362223	839.5999756
1566.874288	835.4000244
1567.386299	838.0
1567.898256	840.7999878
1568.410158	843.0
1568.922007	842.4000244
1569.4338	834.5999756
1569.94554	836.0
1570.457226	839.4000244
1570.968857	833.5999756
1571.480434	833.2000122
1571.991956	831.2000122
1572.503425	838.5999756
1573.014839	842.7999878
1573.526199	843.2000122
1574.037505	842.5999756
1574.548756	843.4000244
1575.059953	834.2000122
1575.571096	848.5999756
1576.082185	829.0
1576.59322	844.0
1577.1042	838.5999756
1577.615126	844.0
1578.125998	835.0
1578.636816	825.2000122
1579.14758	836.2000122
1579.658289	834.0
1580.168944	839.0
1580.679545	832.4000244
1581.190092	838.0
1581.700585	837.0
1582.211023	834.5999756
1582.721407	837.2000122
1583.231737	836.0
1583.742013	835.5999756
1584.252235	831.5999756
1584.762403	835.4000244
1585.272516	840.0
1585.782575	832.7999878
1586.292581	831.7999878
1586.802532	840.5999756
1587.312428	835.2000122
1587.822271	837.4000244
1588.33206	838.4000244
1588.841794	837.7999878
1589.351474	830.2000122
1589.8611	833.2000122
1590.370672	834.0
1590.88019	832.4000244
1591.389654	835.5999756
1591.899064	837.0
1592.408419	839.0
