1042.452273	696.0
1043.018714	697.4000244
1043.585098	696.7999878
1044.151424	693.7999878
1044.717692	693.7999878
1045.283903	694.0
1045.850056	695.0
1046.416151	690.2000122
1046.982188	695.2000122
1047.548167	689.7999878
1048.114089	688.7999878
1048.679953	690.7999878
1049.24576	693.4000244
1049.811509	688.2000122
1050.3772	690.4000244
1050.942833	690.5999756
1051.508408	689.7999878
1052.073926	690.2000122
1052.639387	689.0
1053.204789	686.2000122
1053.770134	688.2000122
1054.335421	687.7999878
1054.900651	692.0
1055.465823	689.5999756
1056.030937	683.7999878
1056.595993	686.0
1057.160992	689.2000122
1057.725934	687.4000244
1058.290817	685.5999756
1058.855643	686.7999878
1059.420411	688.4000244
1059.985122	689.0
1060.549775	686.4000244
1061.114371	690.7999878
1061.678908	684.4000244
1062.243389	688.4000244
1062.807811	684.4000244
1063.372176	688.0
1063.936483	685.4000244
1064.500733	686.2000122
1065.064925	684.7999878
1065.62906	687.5999756
1066.193137	687.4000244
1066.757156	685.0
1067.321118	683.7999878
1067.885022	683.5999756
1068.448869	687.7999878
1069.012658	689.2000122
1069.57639	684.7999878
1070.140063	693.0
1070.70368	688.5999756
1071.267239	685.4000244
1071.83074	690.0
1072.394184	684.4000244
1072.95757	683.5999756
1073.520899	684.2000122
1074.08417	684.7999878
1074.647383	686.7999878
1075.21054	685.4000244
1075.773638	686.4000244
1076.336679	683.0
1076.899663	685.4000244
1077.462589	687.0
1078.025457	687.0
1078.588268	685.2000122
1079.151022	685.0
1079.713718	686.2000122
1080.276356	686.0
1080.838937	688.5999756
1081.401461	682.4000244
1081.963927	687.0
1082.526336	686.5999756
1083.088687	682.7999878
1083.650981	686.4000244
1084.213217	681.0
1084.775396	681.5999756
1085.337517	687.2000122
1085.899581	681.2000122
1086.461587	682.2000122
1087.023536	687.4000244
1087.585428	685.4000244
1088.147262	682.7999878
1088.709039	683.7999878
1089.270758	684.7999878
1089.83242	682.7999878
1090.394024	685.0
1090.955571	686.5999756
1091.517061	682.7999878
1092.078493	684.0
1092.639868	684.5999756
1093.201185	684.5999756
1093.762445	682.4000244
1094.323648	687.7999878
1094.884793	685.0
1095.445881	683.4000244
1096.006911	682.5999756
1096.567884	685.2000122
1097.1288	691.2000122
1097.689659	683.7999878
1098.25046	681.5999756
1098.811203	685.0
1099.37189	684.4000244
1099.932518	683.5999756
1100.49309	685.5999756
1101.053604	683.5999756
1101.614061	682.7999878
1102.174461	683.2000122
1102.734803	684.4000244
1103.295088	683.7999878
1103.855316	681.0
1104.415486	685.5999756
1104.975599	685.7999878
1105.535655	683.0
1106.095653	684.4000244
1106.655594	680.2000122
1107.215478	683.7999878
1107.775305	684.7999878
1108.335074	682.0
1108.894786	683.5999756
1109.45444	682.0
1110.014038	685.7999878
1110.573578	688.2000122
1111.133061	685.0
1111.692486	685.5999756
1112.251854	685.4000244
1112.811165	683.5999756
1113.370419	685.0
1113.929616	682.2000122
1114.488755	682.5999756
1115.047837	683.4000244
1115.606862	682.7999878
1116.16583	686.0
1116.72474	682.5999756
1117.283593	685.4000244
1117.842389	687.7999878
1118.401128	683.4000244
1118.959809	682.7999878
1119.518433	678.2000122
1120.077	682.2000122
1120.63551	681.7999878
1121.193963	680.5999756
1121.752358	684.2000122
1122.310697	683.4000244
1122.868978	681.2000122
1123.427202	681.7999878
1123.985368	681.5999756
1124.543478	682.5999756
1125.10153	680.2000122
1125.659526	685.5999756
1126.217464	684.7999878
1126.775345	682.4000244
1127.333168	685.4000244
1127.890935	684.7999878
1128.448644	685.7999878
1129.006297	687.5999756
1129.563892	683.2000122
1130.12143	686.7999878
1130.678911	683.2000122
1131.236335	685.2000122
1131.793701	683.2000122
1132.351011	685.7999878
1132.908263	682.7999878
1133.465458	683.0
1134.022597	683.4000244
1134.579678	683.5999756
1135.136702	680.0
1135.693669	680.5999756
1136.250578	682.5999756
1136.807431	685.7999878
1137.364227	684.0
1137.920965	679.2000122
1138.477647	682.0
1139.034271	685.7999878
1139.590839	682.0
1140.147349	684.2000122
1140.703802	683.7999878
1141.260198	685.0
1141.816537	678.0
1142.37282	683.2000122
1142.929045	685.7999878
1143.485213	690.7999878
1144.041323	688.0
1144.597377	685.7999878
1145.153374	684.7999878
1145.709314	681.7999878
1146.265197	682.7999878
1146.821023	689.7999878
1147.376792	687.5999756
1147.932503	688.4000244
1148.488158	686.7999878
1149.043756	690.2000122
1149.599297	693.5999756
1150.154781	705.0
1150.710207	731.0
1151.265577	711.5999756
1151.82089	692.4000244
1152.376146	686.7999878
1152.931345	681.5999756
1153.486487	680.2000122
1154.041572	682.2000122
1154.5966	682.2000122
1155.151571	684.7999878
1155.706485	684.7999878
1156.261342	681.2000122
1156.816142	685.5999756
1157.370885	682.5999756
1157.925572	682.7999878
1158.480201	681.0
1159.034774	683.4000244
1159.589289	683.0
1160.143748	682.7999878
1160.698149	681.2000122
1161.252494	683.5999756
1161.806782	682.0
1162.361013	681.7999878
1162.915187	680.2000122
1163.469304	682.5999756
1164.023364	683.0
1164.577368	685.0
1165.131314	684.4000244
1165.685204	681.7999878
1166.239036	682.2000122
1166.792812	688.5999756
1167.346531	684.5999756
1167.900193	682.4000244
1168.453798	681.7999878
1169.007347	681.0
1169.560838	681.4000244
1170.114273	681.0
1170.66765	683.2000122
1171.220971	679.4000244
1171.774235	685.7999878
1172.327443	681.5999756
1172.880593	679.4000244
1173.433687	681.4000244
1173.986723	684.7999878
1174.539703	680.4000244
1175.092626	681.0
1175.645493	684.4000244
1176.198302	679.7999878
1176.751055	681.7999878
1177.303751	683.0
1177.85639	679.2000122
1178.408972	680.0
1178.961498	682.4000244
1179.513966	684.2000122
1180.066378	685.5999756
1180.618733	678.4000244
1181.171032	681.2000122
1181.723273	682.2000122
1182.275458	678.5999756
1182.827586	681.2000122
1183.379657	683.2000122
1183.931672	684.0
1184.48363	683.7999878
1185.035531	684.4000244
1185.587375	681.0
1186.139162	679.5999756
1186.690893	683.0
1187.242567	680.4000244
1187.794184	682.7999878
1188.345745	681.0
1188.897249	678.5999756
1189.448696	682.4000244
1190.000086	686.7999878
1190.55142	682.5999756
1191.102697	681.4000244
1191.653918	687.2000122
1192.205081	682.7999878
1192.756188	676.5999756
1193.858232	678.5999756
1194.409169	685.2000122
1194.960049	682.5999756
1195.510872	681.7999878
1196.061639	682.7999878
1196.612349	677.5999756
1197.163003	680.2000122
1197.713599	681.7999878
1198.264139	681.7999878
1198.814623	680.4000244
1199.36505	680.5999756
1199.91542	679.7999878
1200.465734	681.7999878
1201.01599	685.0
1201.566191	681.0
1202.116334	681.2000122
1202.666421	679.7999878
1203.216452	679.7999878
1203.766425	681.2000122
1204.316343	684.2000122
1204.866203	681.7999878
1205.416007	681.5999756
1205.965754	680.4000244
1206.515445	681.0
1207.065079	680.7999878
1207.614657	683.2000122
1208.164177	680.2000122
1208.713642	679.2000122
1209.26305	682.7999878
1209.812401	683.5999756
1210.361695	681.4000244
1210.910933	679.0
1211.460115	684.2000122
1212.00924	681.5999756
1212.558308	682.7999878
1213.10732	678.5999756
1213.656275	681.2000122
1214.205174	680.4000244
1214.754016	681.5999756
1215.302801	682.5999756
1215.85153	678.5999756
1216.400203	680.7999878
1216.948819	682.0
1217.497378	681.7999878
1218.045881	680.0
1218.594327	680.7999878
1219.142717	682.5999756
1219.691051	682.0
1220.239327	680.5999756
1220.787548	680.2000122
1221.335712	681.4000244
1221.883819	680.0
1222.43187	682.0
1222.979864	680.5999756
1223.527802	680.7999878
1224.075683	678.7999878
1224.623508	678.0
1225.171277	680.2000122
1225.718989	680.5999756
1226.266644	681.7999878
1226.814243	684.4000244
1227.361786	679.5999756
1227.909272	677.0
1228.456702	679.4000244
1229.004075	681.7999878
1229.551392	681.5999756
1230.098652	678.2000122
1230.645856	681.0
1231.193003	681.0
1231.740094	682.5999756
1232.287129	678.2000122
1232.834107	682.0
1233.381029	681.2000122
1233.927894	681.0
1234.474703	681.2000122
1235.021455	677.7999878
1235.568151	681.4000244
1236.114791	681.2000122
1236.661374	678.2000122
1237.207901	679.4000244
1237.754372	681.5999756
1238.300786	680.5999756
1238.847144	680.2000122
1239.393445	679.7999878
1239.93969	681.2000122
1240.485879	679.2000122
1241.032011	680.4000244
1241.578087	676.5999756
1242.124106	680.5999756
1242.67007	680.5999756
1243.215976	681.0
1243.761827	679.4000244
1244.307621	681.7999878
1244.853359	683.7999878
1245.39904	681.4000244
1245.944665	681.7999878
1246.490234	677.5999756
1247.035746	676.0
1247.581203	679.7999878
1248.126602	681.0
1248.671946	679.4000244
1249.217233	679.4000244
1249.762464	679.2000122
1250.307638	686.2000122
1250.852757	679.0
1251.397819	681.4000244
1251.942824	678.2000122
1252.487774	679.4000244
1253.032667	681.5999756
1253.577503	680.5999756
1254.122284	682.0
1254.667008	680.7999878
1255.211676	678.7999878
1255.756288	681.7999878
1256.300843	679.5999756
1256.845342	678.5999756
1257.389785	683.5999756
1257.934172	680.5999756
1258.478502	680.4000244
1259.022776	681.0
1259.566994	683.5999756
1260.111156	687.7999878
1260.655261	680.0
1261.199311	679.7999878
1261.743304	679.5999756
1262.28724	677.7999878
1262.831121	678.0
1263.374945	679.7999878
1263.918713	681.5999756
1264.462425	685.5999756
1265.006081	696.2000122
1265.54968	692.2000122
1266.093223	683.5999756
1266.636711	680.4000244
1267.180141	682.0
1267.723516	679.2000122
1268.266835	681.0
1268.810097	676.0
1269.353303	681.7999878
1269.896453	678.4000244
1270.439547	682.0
1270.982584	681.0
1271.525566	679.0
1272.068491	678.4000244
1272.61136	679.7999878
1273.154173	682.2000122
1273.69693	679.0
1274.239631	682.4000244
1274.782275	680.7999878
1275.324864	678.5999756
1275.867396	677.0
1276.409872	678.2000122
1276.952292	679.5999756
1277.494656	678.7999878
1278.036964	678.0
1278.579215	676.2000122
1279.121411	678.4000244
1279.66355	681.0
1280.205634	679.7999878
1280.747661	676.7999878
1281.289632	680.7999878
1281.831547	680.5999756
1282.373406	684.0
1282.915209	679.7999878
1283.456955	681.4000244
1283.998646	689.0
1284.540281	697.2000122
1285.081859	782.4000244
1285.623381	876.5999756
1286.164848	748.0
1286.706258	692.2000122
1287.247612	684.0
1287.788911	686.7999878
1288.330153	684.0
1288.871339	683.7999878
1289.412469	681.5999756
1289.953543	682.0
1290.494561	676.4000244
1291.035523	679.7999878
1291.576428	678.7999878
1292.117278	677.2000122
1292.658072	681.0
1293.19881	679.4000244
1293.739492	682.4000244
1294.280118	682.2000122
1294.820687	678.4000244
1295.361201	682.0
1295.901659	679.0
1296.442061	681.0
1296.982406	678.0
1297.522696	680.0
1298.06293	676.0
1298.603108	680.5999756
1299.143229	678.7999878
1299.683295	676.4000244
1300.223305	679.5999756
1300.763259	677.7999878
1301.303157	679.0
1301.842999	682.5999756
1302.382785	681.7999878
1302.922515	678.5999756
1303.462189	676.7999878
1304.001807	676.2000122
1304.541369	678.4000244
1305.080875	676.0
1305.620326	674.5999756
1306.15972	674.7999878
1306.699058	681.4000244
1307.238341	680.2000122
1307.777567	674.2000122
1308.316738	676.0
1308.855853	676.4000244
1309.394912	679.7999878
1309.933915	677.7999878
1310.472862	678.0
1311.011753	678.4000244
1311.550588	677.4000244
1312.089367	680.0
1312.62809	679.2000122
1313.166758	678.2000122
1313.70537	676.2000122
1314.243925	682.0
1314.782425	680.7999878
1315.320869	677.0
1315.859257	680.7999878
1316.397589	678.7999878
1316.935866	679.4000244
1317.474086	678.2000122
1318.012251	679.5999756
1318.55036	678.4000244
1319.088413	680.4000244
1319.62641	679.7999878
1320.164351	677.4000244
1320.702236	676.4000244
1321.240066	678.2000122
1321.777839	679.7999878
1322.315557	680.2000122
1322.853219	676.7999878
1323.390826	677.5999756
1323.928376	683.7999878
1324.465871	678.7999878
1325.003309	678.5999756
1325.540692	681.7999878
1326.07802	677.7999878
1326.615291	682.0
1327.152506	679.0
1327.689666	679.4000244
1328.22677	680.2000122
1328.763818	679.7999878
1329.300811	680.4000244
1329.837747	679.5999756
1330.374628	678.4000244
1330.911453	679.2000122
1331.448222	679.7999878
1331.984936	677.2000122
1332.521594	679.0
1333.058196	675.0
1333.594742	679.0
1334.131232	679.7999878
1334.667667	680.2000122
1335.204046	680.0
1335.740369	679.0
1336.276637	681.2000122
1336.812848	679.0
1337.349004	681.0
1337.885105	676.7999878
1338.421149	678.5999756
1338.957138	677.4000244
1339.493071	679.5999756
1340.028949	680.7999878
1340.56477	676.2000122
1341.100536	678.5999756
1341.636246	676.5999756
1342.171901	678.7999878
1342.7075	679.0
1343.243043	680.4000244
1343.77853	682.5999756
1344.313962	677.7999878
1344.849338	676.4000244
1345.384659	678.0
1345.919923	677.7999878
1346.455133	677.4000244
1346.990286	679.4000244
1347.525384	679.4000244
1348.060426	678.5999756
1348.595412	674.7999878
1349.130343	680.4000244
1349.665218	679.4000244
1350.200037	677.7999878
1350.734801	682.0
1351.269509	678.5999756
1351.804162	680.5999756
1352.338758	677.5999756
1352.8733	680.7999878
1353.407785	675.0
1353.942215	679.0
1354.476589	678.7999878
1355.010908	677.7999878
1355.545171	681.2000122
1356.079379	680.7999878
1356.61353	681.0
1357.147627	680.2000122
1357.681667	675.7999878
1358.215652	678.5999756
1358.749582	680.4000244
1359.283456	682.0
1359.817274	675.0
1360.351037	681.5999756
1360.884744	677.5999756
1361.418395	680.0
1361.951991	678.4000244
1362.485531	676.7999878
1363.019016	680.0
1363.552445	681.5999756
1364.085819	679.0
1364.619137	678.4000244
1365.1524	680.0
1365.685607	676.5999756
1366.218758	678.5999756
1366.751854	680.2000122
1367.284894	679.2000122
1367.817879	678.4000244
1368.350808	677.4000244
1368.883682	677.7999878
1369.4165	682.2000122
1369.949263	682.4000244
1370.48197	684.4000244
1371.014622	681.4000244
1371.547218	678.4000244
1372.079758	678.4000244
1372.612244	676.5999756
1373.144673	680.2000122
1373.677047	684.0
1374.209366	676.7999878
1374.741629	674.5999756
1375.273836	679.0
1375.805989	679.7999878
1376.338085	677.5999756
1376.870126	678.5999756
1377.402112	679.4000244
1377.934042	678.4000244
1378.465917	680.5999756
1378.997736	675.7999878
1379.5295	676.2000122
1380.061208	677.0
1380.592861	678.0
1381.124459	680.7999878
1381.656	677.7999878
1382.187487	680.4000244
1382.718918	677.5999756
1383.250294	678.4000244
1383.781614	684.0
1384.312879	678.4000244
1384.844088	680.7999878
1385.375242	681.0
1385.90634	682.7999878
1386.437383	683.7999878
1386.968371	688.4000244
1387.499303	694.7999878
1388.03018	750.2000122
1388.561001	987.7999878
1389.091767	873.2000122
1389.622478	711.2000122
1390.153133	685.2000122
1390.683733	686.4000244
1391.214277	684.2000122
1391.744766	682.2000122
1392.2752	680.4000244
1392.805578	679.4000244
1393.335901	678.5999756
1393.866168	682.0
1394.396381	680.4000244
1394.926537	679.2000122
1395.456639	679.2000122
1395.986685	680.4000244
1396.516675	680.7999878
1397.046611	676.5999756
1397.576491	678.0
1398.106315	680.2000122
1398.636084	678.2000122
1399.165798	675.0
1399.695457	679.5999756
1400.22506	679.2000122
1400.754608	681.0
1401.284101	681.5999756
1401.813538	677.0
1402.34292	680.5999756
1402.872247	677.7999878
1403.401518	676.7999878
1403.930734	678.5999756
1404.459895	675.2000122
1404.989	680.5999756
1405.51805	680.0
1406.047045	681.2000122
1406.575984	674.4000244
1407.104869	677.5999756
1407.633697	678.2000122
1408.162471	678.4000244
1408.691189	679.0
1409.219852	686.4000244
1409.74846	701.2000122
1410.277013	701.7999878
1410.80551	682.4000244
1411.333952	678.4000244
1411.862339	679.7999878
1412.39067	679.5999756
1412.918946	678.7999878
1413.447167	681.0
1413.975333	680.4000244
1414.503444	678.2000122
1415.031499	679.7999878
1415.559499	686.5999756
1416.087444	678.0
1416.615333	676.7999878
1417.143167	676.2000122
1417.670947	676.5999756
1418.19867	680.0
1418.726339	682.4000244
1419.253952	677.5999756
1419.781511	676.5999756
1420.309014	677.4000244
1420.836461	679.5999756
1421.363854	678.7999878
1421.891191	674.2000122
1422.418474	680.4000244
1422.945701	679.2000122
1423.472872	679.5999756
1423.999989	677.2000122
1424.52705	678.5999756
1425.054057	677.0
1425.581008	677.2000122
1426.107904	678.4000244
1426.634745	681.2000122
1427.16153	677.0
1427.688261	678.2000122
1428.214936	677.5999756
1428.741556	679.7999878
1429.268121	675.7999878
1429.794631	678.7999878
1430.321085	679.5999756
1430.847485	680.5999756
1431.373829	677.7999878
1431.900118	678.0
1432.426353	677.5999756
1432.952532	679.7999878
1433.478655	679.7999878
1434.004724	679.0
1434.530738	678.5999756
1435.056696	680.0
1435.5826	679.2000122
1436.108448	676.2000122
1436.634241	677.7999878
1437.159979	676.7999878
1437.685662	678.2000122
1438.21129	674.5999756
1438.736863	681.7999878
1439.262381	678.4000244
1439.787843	677.4000244
1440.313251	678.2000122
1440.838603	679.2000122
1441.3639	677.5999756
1441.889143	681.5999756
1442.41433	677.2000122
1442.939462	677.2000122
1443.464539	674.0
1443.989561	678.5999756
1444.514528	677.0
1445.03944	678.0
1445.564297	678.5999756
1446.089099	677.5999756
1446.613846	679.2000122
1447.138537	679.4000244
1447.663174	678.2000122
1448.187756	678.2000122
1448.712282	678.2000122
1449.236754	675.5999756
1449.761171	674.5999756
1450.285532	676.2000122
1450.809839	679.0
1451.33409	676.0
1451.858287	679.2000122
1452.382428	681.0
1452.906515	675.7999878
1453.430546	674.2000122
1453.954523	679.7999878
1454.478444	679.0
1455.002311	682.7999878
1455.526123	680.2000122
1456.049879	673.5999756
1456.573581	677.2000122
1457.097227	677.7999878
1457.620819	675.7999878
1458.144356	678.7999878
1458.667837	678.2000122
1459.191264	678.5999756
1459.714636	676.5999756
1460.237952	677.2000122
1460.761214	677.5999756
1461.284421	677.7999878
1461.807573	677.7999878
1462.33067	675.5999756
1462.853712	681.2000122
1463.376699	681.0
1463.899632	675.7999878
1464.422509	677.2000122
1464.945331	678.5999756
1465.468099	677.0
1465.990811	677.0
1466.513469	679.0
1467.036071	679.2000122
1467.558619	675.7999878
1468.081112	675.7999878
1468.60355	677.5999756
1469.125933	673.4000244
1469.648261	674.2000122
1470.170534	679.0
1470.692752	678.2000122
1471.214916	678.2000122
1471.737024	680.0
1472.259078	676.7999878
1472.781077	675.2000122
1473.303021	676.5999756
1473.82491	678.0
1474.346744	676.5999756
1474.868523	675.2000122
1475.390248	674.2000122
1475.911917	677.0
1476.433532	677.2000122
1476.955092	679.2000122
1477.476597	677.4000244
1477.998047	678.7999878
1478.519442	675.2000122
1479.040783	677.2000122
1479.562068	675.4000244
1480.083299	679.4000244
1480.604475	675.2000122
1481.125596	679.4000244
1481.646663	677.2000122
1482.167674	676.0
1482.688631	677.4000244
1483.209533	674.7999878
1483.73038	675.5999756
1484.251172	677.2000122
1484.771909	678.0
1485.292592	678.0
1485.81322	676.2000122
1486.333793	675.0
1486.854311	677.4000244
1487.374775	677.5999756
1487.895183	676.5999756
1488.415537	679.7999878
1488.935836	678.7999878
1489.456081	676.7999878
1489.97627	676.5999756
1490.496405	679.2000122
1491.016485	671.4000244
1491.536511	676.4000244
1492.056481	676.2000122
1492.576397	677.5999756
1493.096258	677.5999756
1493.616064	679.7999878
1494.135816	679.7999878
1494.655513	675.4000244
1495.175155	676.2000122
1495.694742	676.4000244
1496.214274	676.4000244
1496.733752	675.2000122
1497.253175	673.2000122
1497.772544	677.7999878
1498.291858	680.7999878
1498.811116	679.2000122
1499.330321	677.5999756
1499.84947	685.4000244
1500.368565	677.5999756
1500.887605	676.4000244
1501.406591	675.4000244
1501.925521	679.4000244
1502.444397	676.7999878
1502.963219	675.4000244
1503.481985	675.7999878
1504.000697	678.2000122
1504.519355	680.5999756
1505.037957	678.7999878
1505.556505	679.7999878
1506.074999	675.0
1506.593437	675.4000244
1507.111821	675.5999756
1507.63015	678.2000122
1508.148425	677.7999878
1508.666645	678.0
1509.18481	674.7999878
1509.702921	676.5999756
1510.220977	676.0
1510.738979	686.4000244
1511.256925	676.4000244
1511.774817	676.4000244
1512.292655	680.4000244
1512.810438	677.7999878
1513.328166	680.5999756
1513.84584	677.7999878
1514.363459	676.0
1514.881023	674.7999878
1515.398533	675.7999878
1515.915988	679.0
1516.433389	675.7999878
1516.950734	677.7999878
1517.468026	680.4000244
1517.985263	675.4000244
1518.502445	674.0
1519.019572	676.4000244
1519.536645	676.2000122
1520.053664	676.7999878
1520.570628	676.0
1521.087537	676.5999756
1521.604392	677.5999756
1522.121192	677.0
1522.637937	676.0
1523.154628	674.0
1523.671265	676.2000122
1524.187847	679.5999756
1524.704374	677.2000122
1525.220847	676.4000244
1525.737265	679.5999756
1526.253629	680.4000244
1526.769938	678.5999756
1527.286192	676.2000122
1527.802392	680.2000122
1528.318538	677.7999878
1528.834629	678.7999878
1529.350666	678.0
1529.866648	675.4000244
1530.382575	675.0
1530.898448	674.4000244
1531.414266	678.7999878
1531.93003	678.2000122
1532.44574	676.4000244
1532.961395	677.2000122
1533.476995	681.0
1533.992541	676.7999878
1534.508033	676.4000244
1535.02347	678.4000244
1535.538852	676.7999878
1536.05418	676.7999878
1536.569454	674.0
1537.084673	675.5999756
1537.599837	673.0
1538.114947	677.5999756
1538.630003	681.2000122
1539.145004	674.2000122
1539.659951	678.5999756
1540.174843	675.4000244
1540.689681	679.5999756
1541.204465	679.7999878
1541.719194	677.5999756
1542.233868	676.0
1542.748488	674.7999878
1543.263054	679.4000244
1543.777565	676.5999756
1544.292022	675.4000244
1544.806424	675.7999878
1545.320772	678.7999878
1545.835066	676.7999878
1546.349305	678.0
1546.863489	681.2000122
1547.37762	676.0
1547.891696	677.5999756
1548.405717	676.2000122
1548.919684	675.7999878
1549.433597	678.0
1549.947455	675.7999878
1550.461259	674.7999878
1550.975009	679.5999756
1551.488704	676.5999756
1552.002345	676.5999756
1552.515931	678.2000122
1553.029463	675.2000122
1553.542941	675.5999756
1554.056364	677.4000244
1554.569733	679.5999756
1555.083048	678.2000122
1555.596308	680.2000122
1556.109514	679.2000122
1556.622665	677.7999878
1557.135762	678.5999756
1557.648805	676.5999756
1558.161794	675.7999878
1558.674728	676.4000244
1559.187608	677.0
1559.700433	676.4000244
1560.213205	678.4000244
1560.725921	681.4000244
1561.238584	678.4000244
1561.751192	678.5999756
1562.263746	678.5999756
1562.776246	676.0
1563.288691	678.0
1563.801082	679.0
1564.313419	677.2000122
1564.825701	676.5999756
1565.337929	678.4000244
1565.850103	677.4000244
1566.362223	677.5999756
1566.874288	677.2000122
1567.386299	677.7999878
1567.898256	679.2000122
1568.410158	680.2000122
1568.922007	677.0
1569.4338	677.2000122
1569.94554	678.4000244
1570.457226	680.4000244
1570.968857	678.5999756
1571.480434	676.5999756
1571.991956	679.0
1572.503425	676.2000122
1573.014839	674.4000244
1573.526199	680.7999878
1574.037505	677.4000244
1574.548756	675.7999878
1575.059953	678.4000244
1575.571096	677.0
1576.082185	676.4000244
1576.59322	675.4000244
1577.1042	679.5999756
1577.615126	675.4000244
1578.125998	679.4000244
1578.636816	675.2000122
1579.14758	676.4000244
1579.658289	678.2000122
1580.168944	674.5999756
1580.679545	675.7999878
1581.190092	678.2000122
1581.700585	678.4000244
1582.211023	679.4000244
1582.721407	675.5999756
1583.231737	675.0
1583.742013	677.7999878
1584.252235	675.4000244
1584.762403	676.5999756
1585.272516	678.7999878
1585.782575	675.2000122
1586.292581	677.2000122
1586.802532	676.7999878
1587.312428	676.7999878
1587.822271	677.2000122
1588.33206	676.2000122
1588.841794	677.2000122
1589.351474	678.2000122
1589.8611	674.2000122
1590.370672	675.0
1590.88019	676.0
1591.389654	676.4000244
1591.899064	679.2000122
1592.408419	678.4000244
