1042.452273	4606.200195
1043.018714	4607.200195
1043.585098	4602.799805
1044.151424	4586.0
1044.717692	4561.399902
1045.283903	4578.799805
1045.850056	4570.399902
1046.416151	4586.200195
1046.982188	4572.0
1047.548167	4563.200195
1048.114089	4548.0
1048.679953	4562.600098
1049.24576	4551.799805
1049.811509	4565.399902
1050.3772	4525.799805
1050.942833	4522.0
1051.508408	4557.600098
1052.073926	4543.200195
1052.639387	4531.200195
1053.204789	4536.600098
1053.770134	4565.200195
1054.335421	4556.600098
1054.900651	4539.799805
1055.465823	4530.600098
1056.030937	4524.0
1056.595993	4518.0
1057.160992	4518.799805
1057.725934	4533.799805
1058.290817	4530.200195
1058.855643	4494.799805
1059.420411	4476.600098
1059.985122	4496.0
1060.549775	4486.200195
1061.114371	4482.200195
1061.678908	4495.399902
1062.243389	4491.600098
1063.372176	4500.799805
1063.936483	4488.799805
1064.500733	4482.600098
1065.064925	4503.0
1065.62906	4486.399902
1066.193137	4499.600098
1066.757156	4489.200195
1067.321118	4492.200195
1067.885022	4482.799805
1068.448869	4477.399902
1069.012658	4476.200195
1069.57639	4456.0
1070.140063	4446.399902
1070.70368	4476.200195
1071.267239	4404.799805
1071.83074	4450.600098
1072.394184	4441.600098
1072.95757	4425.200195
1073.520899	4434.0
1074.08417	4459.799805
1074.647383	4435.200195
1075.21054	4445.600098
1075.773638	4423.799805
1076.336679	4431.0
1076.899663	4378.399902
1077.462589	4434.0
1078.025457	4438.600098
1078.588268	4444.0
1079.151022	4365.799805
1079.713718	4380.799805
1080.276356	4404.200195
1080.838937	4422.200195
1081.401461	4379.399902
1081.963927	4378.799805
1082.526336	4364.799805
1083.088687	4386.200195
1083.650981	4365.600098
1084.213217	4369.200195
1084.775396	4334.200195
1085.337517	4377.399902
1085.899581	4351.0
1086.461587	4365.200195
1087.023536	4329.600098
1087.585428	4361.200195
1088.147262	4325.799805
1088.709039	4356.0
1089.270758	4330.799805
1089.83242	4330.799805
1090.394024	4305.399902
1090.955571	4364.0
1091.517061	4311.399902
1092.078493	4308.799805
1092.639868	4266.200195
1093.201185	4306.799805
1093.762445	4299.399902
1094.323648	4297.600098
1094.884793	4286.399902
1095.445881	4312.600098
1096.006911	4262.799805
1096.567884	4272.0
1097.1288	4263.200195
1097.689659	4342.799805
1098.25046	4252.200195
1098.811203	4267.200195
1099.37189	4280.399902
1099.932518	4274.399902
1100.49309	4264.399902
1101.053604	4266.200195
1101.614061	4225.200195
1102.174461	4216.600098
1102.734803	4196.200195
1103.295088	4224.399902
1103.855316	4207.0
1104.415486	4251.0
1104.975599	4181.200195
1105.535655	4229.200195
1106.095653	4171.200195
1106.655594	4242.600098
1107.215478	4183.399902
1107.775305	4220.399902
1108.335074	4210.600098
1108.894786	4221.0
1109.45444	4174.799805
1110.014038	4210.600098
1110.573578	4160.200195
1111.133061	4183.600098
1111.692486	4183.799805
1112.251854	4166.399902
1112.811165	4157.600098
1113.370419	4146.399902
1113.929616	4156.399902
1114.488755	4172.399902
1115.047837	4143.399902
1115.606862	4147.399902
1116.16583	4163.399902
1116.72474	4118.600098
1117.283593	4144.399902
1117.842389	4118.799805
1118.401128	4114.0
1118.959809	4168.799805
1119.518433	4130.399902
1120.077	4154.600098
1120.63551	4130.0
1121.193963	4147.399902
1121.752358	4095.600098
1122.310697	4125.200195
1122.868978	4081.0
1123.427202	4113.399902
1123.985368	4105.799805
1124.543478	4098.399902
1125.10153	4104.600098
1125.659526	4097.399902
1126.217464	4097.799805
1126.775345	4111.799805
1127.333168	4104.0
1127.890935	4116.399902
1128.448644	4107.799805
1129.006297	4098.200195
1129.563892	4083.399902
1130.12143	4105.399902
1130.678911	4132.799805
1131.236335	4063.600098
1131.793701	4067.0
1132.351011	4100.200195
1132.908263	4084.199951
1133.465458	4092.0
1134.022597	4049.800049
1134.579678	4067.399902
1135.136702	4079.600098
1135.693669	4058.0
1136.250578	4073.199951
1136.807431	4085.399902
1137.364227	4066.800049
1137.920965	4090.399902
1138.477647	4057.0
1139.034271	4088.399902
1139.590839	4057.600098
1140.147349	4047.800049
1140.703802	4070.0
1141.260198	4036.399902
1141.816537	4064.199951
1142.37282	4058.600098
1142.929045	4066.600098
1143.485213	4062.600098
1144.041323	4071.0
1144.597377	4063.800049
1145.153374	4032.600098
1145.709314	4056.800049
1146.265197	4066.800049
1146.821023	4071.800049
1147.376792	4058.600098
1147.932503	4030.800049
1148.488158	4067.800049
1149.043756	4022.0
1149.599297	4042.199951
1150.154781	4061.800049
1150.710207	4062.800049
1151.265577	4062.199951
1151.82089	4043.399902
1152.376146	4021.199951
1152.931345	4012.399902
1153.486487	4032.199951
1154.041572	4028.199951
1154.5966	4030.0
1155.151571	4062.800049
1155.706485	4029.600098
1156.261342	4043.199951
1156.816142	4047.600098
1157.370885	4043.0
1157.925572	4029.0
1158.480201	4036.199951
1159.034774	4031.399902
1159.589289	4039.399902
1160.143748	4024.600098
1160.698149	4008.600098
1161.252494	3977.399902
1161.806782	4044.399902
1162.361013	4012.600098
1162.915187	4007.800049
1163.469304	4003.0
1164.023364	4050.399902
1164.577368	3991.800049
1165.131314	4030.399902
1165.685204	3967.800049
1166.239036	4012.800049
1166.792812	3985.399902
1167.346531	4023.600098
1167.900193	4010.199951
1168.453798	4010.800049
1169.007347	3971.600098
1169.560838	3996.600098
1170.114273	4001.800049
1170.66765	4001.800049
1171.220971	4002.199951
1171.774235	3951.0
1172.327443	3944.600098
1172.880593	3984.399902
1173.433687	3988.399902
1173.986723	3997.600098
1174.539703	4006.399902
1175.092626	3984.399902
1175.645493	4001.800049
1176.198302	3956.199951
1176.751055	3978.199951
1177.303751	3959.399902
1177.85639	3989.199951
1178.408972	3956.800049
1178.961498	3958.800049
1179.513966	3967.600098
1180.066378	3965.800049
1180.618733	3963.399902
1181.171032	3988.199951
1181.723273	3938.800049
1182.275458	4016.399902
1182.827586	3925.600098
1183.379657	3958.600098
1183.931672	3938.199951
1184.48363	3936.800049
1185.035531	3929.0
1185.587375	3935.199951
1186.139162	3940.600098
1186.690893	3930.800049
1187.242567	3925.199951
1187.794184	3910.600098
1188.345745	3933.399902
1188.897249	3946.399902
1189.448696	3940.800049
1190.000086	3921.800049
1190.55142	3925.399902
1191.102697	3902.399902
1191.653918	3940.199951
1192.205081	3912.399902
1192.756188	3936.199951
1193.307238	3929.399902
1193.858232	3898.0
1194.409169	3899.800049
1194.960049	3912.0
1195.510872	3880.199951
1196.061639	3872.399902
1196.612349	3913.600098
1197.163003	3888.0
1197.713599	3884.800049
1198.264139	3890.0
1198.814623	3884.800049
1199.36505	3882.600098
1199.91542	3879.600098
1200.465734	3912.600098
1201.01599	3858.600098
1201.566191	3884.0
1202.116334	3840.800049
1202.666421	3882.199951
1203.216452	3886.0
1203.766425	3879.199951
1204.316343	3837.600098
1204.866203	3851.399902
1205.416007	3857.199951
1205.965754	3861.800049
1206.515445	3867.800049
1207.065079	3853.800049
1207.614657	3871.399902
1208.164177	3845.399902
1208.713642	3854.199951
1209.26305	3818.600098
1209.812401	3847.199951
1210.361695	3831.399902
1210.910933	3870.600098
1211.460115	3833.800049
1212.00924	3808.199951
1212.558308	3783.199951
1213.10732	3857.800049
1213.656275	3823.0
1214.205174	3842.399902
1214.754016	3819.399902
1215.302801	3817.199951
1215.85153	3805.800049
1216.400203	3829.0
1216.948819	3815.0
1217.497378	3799.800049
1218.045881	3786.800049
1218.594327	3793.399902
1219.142717	3810.399902
1219.691051	3787.800049
1220.239327	3796.0
1220.787548	3813.800049
1221.335712	3801.800049
1221.883819	3789.0
1222.43187	3776.399902
1222.979864	3780.399902
1223.527802	3779.399902
1224.075683	3786.199951
1224.623508	3776.399902
1225.171277	3772.399902
1225.718989	3759.199951
1226.266644	3780.800049
1226.814243	3776.199951
1227.361786	3776.800049
1227.909272	3753.0
1228.456702	3736.600098
1229.004075	3760.600098
1229.551392	3744.399902
1230.098652	3756.800049
1230.645856	3730.199951
1231.193003	3782.399902
1231.740094	3787.199951
1232.287129	3760.800049
1232.834107	3736.0
1233.381029	3743.800049
1233.927894	3734.800049
1234.474703	3751.0
1235.021455	3734.800049
1235.568151	3733.399902
1236.114791	3738.0
1236.661374	3770.399902
1237.207901	3737.800049
1237.754372	3721.800049
1238.300786	3753.0
1238.847144	3732.0
1239.393445	3744.600098
1239.93969	3728.600098
1240.485879	3742.800049
1241.032011	3753.800049
1241.578087	3709.199951
1242.124106	3709.199951
1242.67007	3706.199951
1243.215976	3698.399902
1243.761827	3730.0
1244.307621	3703.600098
1244.853359	3724.0
1245.39904	3680.0
1245.944665	3711.800049
1246.490234	3685.399902
1247.035746	3745.600098
1247.581203	3684.199951
1248.126602	3698.0
1248.671946	3676.600098
1249.217233	3716.600098
1249.762464	3707.399902
1250.307638	3686.199951
1250.852757	3694.199951
1251.397819	3687.600098
1251.942824	3679.199951
1252.487774	3694.199951
1253.032667	3669.800049
1253.577503	3685.800049
1254.122284	3702.600098
1254.667008	3697.600098
1255.211676	3665.800049
1255.756288	3670.0
1256.300843	3692.0
1256.845342	3664.399902
1257.389785	3676.399902
1257.934172	3669.199951
1258.478502	3691.199951
1259.022776	3624.600098
1259.566994	3648.0
1260.111156	3670.600098
1260.655261	3663.199951
1261.199311	3657.0
1261.743304	3664.800049
1262.28724	3644.600098
1262.831121	3673.600098
1263.374945	3661.600098
1263.918713	3670.600098
1264.462425	3646.399902
1265.006081	3699.0
1265.54968	3666.0
1266.093223	3652.600098
1266.636711	3631.800049
1267.180141	3636.600098
1267.723516	3626.0
1268.266835	3684.199951
1268.810097	3620.600098
1269.353303	3636.800049
1269.896453	3652.600098
1270.439547	3630.399902
1270.982584	3603.800049
1271.525566	3616.199951
1272.068491	3632.199951
1272.61136	3607.800049
1273.154173	3624.199951
1273.69693	3604.800049
1274.239631	3626.399902
1274.782275	3584.600098
1275.324864	3609.0
1275.867396	3611.600098
1276.409872	3585.600098
1276.952292	3573.0
1277.494656	3624.0
1278.036964	3605.600098
1278.579215	3602.199951
1279.121411	3601.199951
1279.66355	3607.0
1280.205634	3597.0
1280.747661	3616.0
1281.289632	3596.600098
1281.831547	3613.0
1282.373406	3625.0
1282.915209	3603.199951
1283.456955	3592.600098
1283.998646	3612.399902
1284.540281	3668.600098
1285.081859	3854.600098
1285.623381	3884.199951
1286.164848	3636.399902
1286.706258	3602.600098
1287.247612	3603.800049
1287.788911	3564.600098
1288.330153	3572.399902
1288.871339	3568.600098
1289.412469	3589.199951
1289.953543	3557.399902
1290.494561	3549.600098
1291.035523	3570.0
1291.576428	3587.800049
1292.117278	3578.600098
1292.658072	3540.199951
1293.19881	3557.199951
1293.739492	3514.199951
1294.280118	3555.199951
1294.820687	3547.0
1295.361201	3548.600098
1295.901659	3508.800049
1296.442061	3551.199951
1296.982406	3527.800049
1297.522696	3563.399902
1298.06293	3524.199951
1298.603108	3538.399902
1299.143229	3555.800049
1299.683295	3525.0
1300.223305	3544.199951
1300.763259	3515.399902
1301.303157	3557.199951
1301.842999	3497.0
1302.382785	3538.0
1302.922515	3535.399902
1303.462189	3499.800049
1304.001807	3508.800049
1304.541369	3509.199951
1305.080875	3505.199951
1305.620326	3503.0
1306.15972	3484.399902
1306.699058	3511.800049
1307.238341	3500.199951
1307.777567	3531.0
1308.316738	3466.0
1308.855853	3504.199951
1309.394912	3522.0
1309.933915	3517.199951
1310.472862	3484.800049
1311.011753	3487.0
1311.550588	3490.800049
1312.089367	3490.0
1312.62809	3434.399902
1313.166758	3501.399902
1313.70537	3474.0
1314.243925	3515.199951
1314.782425	3491.800049
1315.320869	3450.600098
1315.859257	3475.600098
1316.397589	3452.800049
1316.935866	3472.800049
1317.474086	3448.399902
1318.012251	3452.800049
1318.55036	3439.399902
1319.088413	3441.399902
1319.62641	3446.800049
1320.164351	3466.199951
1320.702236	3441.399902
1321.240066	3463.600098
1321.777839	3452.800049
1322.315557	3461.600098
1322.853219	3451.399902
1323.390826	3451.600098
1323.928376	3461.800049
1324.465871	3489.399902
1325.003309	3454.399902
1325.540692	3444.800049
1326.07802	3433.800049
1326.615291	3428.800049
1327.152506	3437.0
1327.689666	3448.399902
1328.22677	3439.600098
1328.763818	3444.800049
1329.300811	3462.199951
1329.837747	3465.399902
1330.374628	3426.600098
1330.911453	3420.199951
1331.448222	3440.399902
1331.984936	3411.0
1332.521594	3412.199951
1333.058196	3419.600098
1333.594742	3444.199951
1334.131232	3408.399902
1334.667667	3429.600098
1335.204046	3431.199951
1335.740369	3435.399902
1336.276637	3426.600098
1336.812848	3406.800049
1337.349004	3414.800049
1337.885105	3442.800049
1338.421149	3429.199951
1338.957138	3394.199951
1339.493071	3387.399902
1340.028949	3374.0
1340.56477	3389.800049
1341.100536	3385.199951
1341.636246	3404.199951
1342.171901	3361.600098
1342.7075	3394.199951
1343.243043	3372.800049
1343.77853	3397.0
1344.313962	3394.199951
1344.849338	3378.399902
1345.384659	3371.0
1345.919923	3397.800049
1346.455133	3395.0
1346.990286	3384.800049
1347.525384	3355.800049
1348.060426	3369.399902
1348.595412	3364.399902
1349.130343	3348.399902
1349.665218	3358.800049
1350.200037	3355.399902
1350.734801	3377.600098
1351.269509	3360.600098
1351.804162	3355.0
1352.338758	3343.399902
1352.8733	3388.399902
1353.407785	3341.600098
1353.942215	3358.800049
1354.476589	3351.399902
1355.010908	3342.800049
1355.545171	3326.600098
1356.079379	3342.0
1356.61353	3349.800049
1357.147627	3320.199951
1357.681667	3330.199951
1358.215652	3336.600098
1358.749582	3328.800049
1359.283456	3301.600098
1359.817274	3335.199951
1360.351037	3307.199951
1360.884744	3358.199951
1361.418395	3317.399902
1361.951991	3319.0
1362.485531	3326.0
1363.019016	3330.399902
1363.552445	3318.199951
1364.085819	3322.199951
1364.619137	3292.0
1365.1524	3325.199951
1365.685607	3297.800049
1366.218758	3329.0
1366.751854	3314.600098
1367.284894	3318.600098
1367.817879	3294.199951
1368.350808	3314.199951
1368.883682	3302.399902
1369.4165	3305.199951
1369.949263	3301.399902
1370.48197	3302.0
1371.014622	3299.800049
1371.547218	3291.399902
1372.079758	3287.199951
1372.612244	3296.199951
1373.144673	3302.0
1373.677047	3272.399902
1374.209366	3294.0
1374.741629	3277.399902
1375.273836	3301.600098
1375.805989	3283.199951
1376.338085	3267.600098
1376.870126	3313.199951
1377.402112	3256.0
1377.934042	3289.0
1378.465917	3264.0
1378.997736	3278.199951
1379.5295	3266.0
1380.061208	3254.600098
1380.592861	3255.199951
1381.124459	3291.0
1381.656	3252.600098
1382.187487	3270.199951
1382.718918	3249.199951
1383.250294	3277.399902
1383.781614	3267.399902
1384.312879	3257.600098
1384.844088	3237.800049
1385.375242	3253.199951
1385.90634	3255.199951
1386.437383	3300.800049
1386.968371	3272.199951
1387.499303	3298.800049
1388.03018	3468.199951
1388.561001	3823.0
1389.091767	3550.0
1389.622478	3291.199951
1390.153133	3270.800049
1390.683733	3208.199951
1391.214277	3243.399902
1391.744766	3213.600098
1392.2752	3262.600098
1392.805578	3198.800049
1393.335901	3239.0
1393.866168	3225.399902
1394.396381	3235.199951
1394.926537	3228.399902
1395.456639	3227.199951
1395.986685	3211.399902
1396.516675	3238.0
1397.046611	3228.600098
1397.576491	3229.800049
1398.106315	3237.399902
1398.636084	3218.600098
1399.165798	3245.0
1399.695457	3197.600098
1400.22506	3225.800049
1400.754608	3210.600098
1401.284101	3223.399902
1401.813538	3218.0
1402.34292	3217.600098
1402.872247	3238.399902
1403.401518	3215.399902
1403.930734	3217.0
1404.459895	3205.199951
1404.989	3235.800049
1405.51805	3202.199951
1406.047045	3197.399902
1406.575984	3205.800049
1407.104869	3211.199951
1407.633697	3196.399902
1408.162471	3228.399902
1408.691189	3219.800049
1409.219852	3219.399902
1409.74846	3240.0
1410.277013	3237.399902
1410.80551	3245.600098
1411.333952	3210.800049
1411.862339	3190.600098
1412.39067	3194.399902
1412.918946	3191.600098
1413.447167	3199.199951
1413.975333	3181.399902
1414.503444	3176.199951
1415.031499	3200.600098
1415.559499	3206.0
1416.087444	3191.600098
1416.615333	3181.600098
1417.143167	3187.800049
1417.670947	3189.399902
1418.19867	3184.0
1418.726339	3192.399902
1419.253952	3180.0
1419.781511	3204.0
1420.309014	3168.0
1420.836461	3208.800049
1421.363854	3158.0
1421.891191	3164.399902
1422.418474	3165.600098
1422.945701	3187.399902
1423.472872	3156.0
1423.999989	3173.600098
1424.52705	3176.199951
1425.054057	3189.600098
1425.581008	3168.0
1426.107904	3165.800049
1426.634745	3189.0
1427.16153	3174.199951
1427.688261	3162.0
1428.214936	3138.399902
1428.741556	3139.600098
1429.268121	3152.399902
1429.794631	3185.199951
1430.321085	3175.0
1430.847485	3171.800049
1431.373829	3143.0
1431.900118	3164.199951
1432.426353	3151.399902
1432.952532	3172.399902
1433.478655	3141.800049
1434.004724	3146.600098
1434.530738	3137.600098
1435.056696	3173.600098
1435.5826	3142.199951
1436.108448	3129.0
1436.634241	3132.399902
1437.159979	3130.600098
1437.685662	3134.0
1438.21129	3162.600098
1438.736863	3136.600098
1439.262381	3137.800049
1439.787843	3163.199951
1440.313251	3124.0
1440.838603	3115.399902
1441.3639	3114.800049
1441.889143	3116.199951
1442.41433	3138.0
1442.939462	3111.0
1443.464539	3123.600098
1443.989561	3124.199951
1444.514528	3128.800049
1445.03944	3115.600098
1445.564297	3090.600098
1446.089099	3116.0
1446.613846	3111.600098
1447.138537	3081.0
1447.663174	3110.199951
1448.187756	3102.399902
1448.712282	3106.0
1449.236754	3104.800049
1449.761171	3109.600098
1450.285532	3091.0
1450.809839	3097.399902
1451.33409	3091.399902
1451.858287	3104.199951
1452.382428	3090.0
1452.906515	3110.600098
1453.430546	3103.0
1453.954523	3086.800049
1454.478444	3088.199951
1455.002311	3092.0
1455.526123	3092.399902
1456.049879	3075.800049
1456.573581	3084.399902
1457.097227	3064.0
1457.620819	3095.199951
1458.144356	3054.0
1458.667837	3061.199951
1459.191264	3057.600098
1459.714636	3072.800049
1460.237952	3057.399902
1460.761214	3054.0
1461.284421	3084.199951
1461.807573	3051.199951
1462.33067	3056.199951
1462.853712	3059.800049
1463.376699	3090.199951
1463.899632	3072.600098
1464.422509	3065.399902
1464.945331	3056.800049
1465.468099	3060.399902
1465.990811	3056.399902
1466.513469	3067.0
1467.036071	3042.800049
1467.558619	3037.800049
1468.081112	3026.800049
1468.60355	3083.800049
1469.125933	3027.800049
1469.648261	3040.600098
1470.170534	3046.800049
1470.692752	3038.800049
1471.214916	3031.399902
1471.737024	3026.600098
1472.259078	3044.600098
1472.781077	3030.600098
1473.303021	3040.600098
1473.82491	3031.800049
1474.346744	3021.399902
1474.868523	3022.800049
1475.390248	3030.800049
1475.911917	3023.0
1476.433532	3018.800049
1476.955092	3037.600098
1477.476597	3016.399902
1477.998047	3040.600098
1478.519442	3032.800049
1479.040783	3007.399902
1479.562068	3028.600098
1480.083299	3007.399902
1480.604475	3023.800049
1481.125596	2999.0
1481.646663	3011.399902
1482.167674	2983.600098
1482.688631	2991.399902
1483.209533	2986.399902
1483.73038	3012.399902
1484.251172	3000.600098
1484.771909	2987.800049
1485.292592	2984.600098
1485.81322	2979.0
1486.333793	3001.399902
1486.854311	2970.600098
1487.374775	2980.800049
1487.895183	2978.399902
1488.415537	2996.399902
1488.935836	2972.199951
1489.456081	2995.800049
1489.97627	2986.600098
1490.496405	2982.199951
1491.016485	2970.399902
1491.536511	2986.399902
1492.056481	2958.800049
1492.576397	2968.199951
1493.096258	2975.399902
1493.616064	2986.0
1494.135816	2963.199951
1494.655513	2966.800049
1495.175155	2969.0
1495.694742	2960.399902
1496.214274	2969.0
1496.733752	2960.800049
1497.253175	2940.199951
1497.772544	2966.199951
1498.291858	2965.399902
1498.811116	2950.0
1499.330321	2945.0
1499.84947	2973.0
1500.368565	2967.199951
1500.887605	2958.600098
1501.406591	2927.199951
1501.925521	2961.800049
1502.444397	2953.0
1502.963219	2969.199951
1503.481985	2963.0
1504.000697	2924.600098
1504.519355	2943.199951
1505.037957	2925.399902
1505.556505	2957.600098
1506.074999	2939.600098
1506.593437	2920.600098
1507.111821	2939.199951
1507.63015	2937.800049
1508.148425	2911.0
1508.666645	2924.0
1509.18481	2937.199951
1509.702921	2922.399902
1510.220977	2949.600098
1510.738979	2931.0
1511.256925	2914.399902
1511.774817	2927.199951
1512.292655	2943.0
1512.810438	2932.0
1513.328166	2921.600098
1513.84584	2916.399902
1514.363459	2927.0
1514.881023	2903.800049
1515.398533	2934.399902
1515.915988	2921.199951
1516.433389	2898.0
1516.950734	2941.600098
1517.468026	2914.800049
1517.985263	2923.800049
1518.502445	2911.0
1519.019572	2909.600098
1519.536645	2920.199951
1520.053664	2893.399902
1520.570628	2915.0
1521.087537	2905.0
1521.604392	2917.199951
1522.121192	2908.800049
1522.637937	2900.399902
1523.154628	2891.199951
1523.671265	2901.600098
1524.187847	2916.0
1524.704374	2920.0
1525.220847	2891.600098
1525.737265	2884.399902
1526.253629	2902.0
1526.769938	2889.199951
1527.286192	2936.0
1527.802392	2907.800049
1528.318538	2925.399902
1528.834629	2901.0
1529.350666	2918.399902
1529.866648	2882.199951
1530.382575	2915.199951
1530.898448	2888.199951
1531.414266	2885.800049
1531.93003	2891.199951
1532.44574	2908.800049
1532.961395	2900.199951
1533.476995	2911.399902
1533.992541	2896.399902
1534.508033	2883.600098
1535.02347	2896.600098
1535.538852	2908.0
1536.05418	2892.399902
1536.569454	2882.800049
1537.084673	2882.800049
1537.599837	2884.600098
1538.114947	2880.800049
1538.630003	2894.199951
1539.145004	2860.600098
1539.659951	2900.199951
1540.174843	2881.800049
1540.689681	2875.199951
1541.204465	2875.600098
1541.719194	2889.800049
1542.233868	2874.600098
1542.748488	2887.199951
1543.263054	2896.0
1543.777565	2881.399902
1544.292022	2859.199951
1544.806424	2868.0
1545.320772	2860.0
1545.835066	2855.800049
1546.349305	2897.399902
1546.863489	2877.399902
1547.37762	2883.800049
1547.891696	2868.800049
1548.405717	2876.399902
1548.919684	2873.199951
1549.433597	2895.0
1549.947455	2876.399902
1550.461259	2850.800049
1550.975009	2886.800049
1551.488704	2867.199951
1552.002345	2868.600098
1552.515931	2852.0
1553.029463	2890.199951
1553.542941	2822.399902
1554.056364	2847.199951
1554.569733	2870.399902
1555.083048	2855.0
1555.596308	2854.800049
1556.109514	2873.0
1556.622665	2866.0
1557.135762	2856.0
1557.648805	2854.0
1558.161794	2833.399902
1558.674728	2878.399902
1559.187608	2866.600098
1559.700433	2858.800049
1560.213205	2847.800049
1560.725921	2849.800049
1561.238584	2848.800049
1561.751192	2835.600098
1562.263746	2866.399902
1562.776246	2862.0
1563.288691	2847.600098
1563.801082	2846.399902
1564.313419	2831.199951
1564.825701	2818.199951
1565.337929	2865.399902
1565.850103	2854.0
1566.362223	2851.399902
1566.874288	2855.199951
1567.386299	2845.0
1567.898256	2834.800049
1568.410158	2844.800049
1568.922007	2858.600098
1569.4338	2821.199951
1569.94554	2838.600098
1570.457226	2849.199951
1570.968857	2851.399902
1571.480434	2831.800049
1571.991956	2843.199951
1572.503425	2837.0
1573.014839	2839.199951
1573.526199	2823.0
1574.037505	2822.399902
1574.548756	2837.800049
1575.059953	2833.199951
1575.571096	2855.399902
1576.082185	2833.800049
1576.59322	2854.600098
1577.1042	2846.199951
1577.615126	2831.800049
1578.125998	2823.600098
1578.636816	2803.800049
1579.14758	2862.199951
1579.658289	2842.800049
1580.168944	2825.600098
1580.679545	2793.600098
1581.190092	2816.800049
1581.700585	2805.399902
1582.211023	2810.800049
1582.721407	2821.199951
1583.231737	2819.800049
1583.742013	2829.800049
1584.252235	2786.199951
1584.762403	2830.600098
1585.272516	2801.399902
1585.782575	2818.800049
1586.292581	2804.0
1586.802532	2797.0
1587.312428	2811.399902
1587.822271	2806.399902
1588.33206	2803.199951
1588.841794	2807.0
1589.351474	2800.800049
1589.8611	2777.0
1590.370672	2799.0
1590.88019	2768.800049
1591.389654	2824.0
