1042.452273	724.0
1043.018714	726.0
1043.585098	720.7999878
1044.151424	720.5999756
1044.717692	721.4000244
1045.283903	722.2000122
1045.850056	723.5999756
1046.416151	715.7999878
1046.982188	725.0
1047.548167	718.7999878
1048.114089	717.5999756
1048.679953	718.2000122
1049.24576	715.5999756
1049.811509	719.7999878
1050.3772	718.5999756
1050.942833	716.7999878
1051.508408	719.2000122
1052.073926	718.0
1052.639387	715.5999756
1053.204789	720.5999756
1053.770134	717.0
1054.335421	716.4000244
1054.900651	718.7999878
1055.465823	712.7999878
1056.030937	713.0
1056.595993	716.0
1057.160992	714.7999878
1057.725934	714.4000244
1058.290817	715.4000244
1058.855643	712.7999878
1059.420411	715.2000122
1059.985122	716.5999756
1060.549775	714.7999878
1061.114371	713.7999878
1061.678908	713.5999756
1062.243389	712.0
1062.807811	713.0
1063.372176	713.5999756
1063.936483	713.5999756
1064.500733	712.0
1065.064925	715.2000122
1065.62906	713.7999878
1066.193137	710.7999878
1066.757156	712.5999756
1067.321118	713.7999878
1067.885022	714.0
1068.448869	716.2000122
1069.012658	709.4000244
1069.57639	711.4000244
1070.140063	720.2000122
1070.70368	715.0
1071.267239	712.2000122
1071.83074	717.0
1072.394184	714.5999756
1072.95757	712.5999756
1073.520899	712.0
1074.08417	716.7999878
1074.647383	709.0
1075.21054	710.4000244
1075.773638	714.5999756
1076.336679	713.0
1076.899663	713.7999878
1077.462589	710.4000244
1078.025457	707.2000122
1078.588268	713.4000244
1079.151022	714.7999878
1079.713718	712.7999878
1080.276356	713.7999878
1080.838937	710.5999756
1081.401461	712.2000122
1081.963927	707.5999756
1082.526336	713.7999878
1083.088687	715.2000122
1083.650981	713.2000122
1084.213217	715.0
1084.775396	709.0
1085.337517	713.5999756
1085.899581	709.0
1086.461587	714.5999756
1087.023536	715.0
1087.585428	709.7999878
1088.147262	711.0
1088.709039	711.4000244
1089.270758	713.7999878
1089.83242	712.2000122
1090.394024	711.0
1090.955571	710.4000244
1091.517061	711.7999878
1092.078493	710.5999756
1092.639868	716.5999756
1093.201185	717.2000122
1093.762445	711.2000122
1094.323648	710.5999756
1094.884793	715.5999756
1095.445881	710.5999756
1096.006911	716.0
1096.567884	709.5999756
1097.1288	716.2000122
1097.689659	712.4000244
1098.25046	712.2000122
1098.811203	711.5999756
1099.37189	708.2000122
1099.932518	710.0
1100.49309	711.5999756
1101.053604	712.5999756
1101.614061	708.5999756
1102.174461	707.7999878
1102.734803	708.5999756
1103.295088	711.5999756
1103.855316	714.2000122
1104.415486	710.5999756
1104.975599	710.4000244
1105.535655	717.7999878
1106.095653	710.5999756
1106.655594	707.7999878
1107.215478	709.4000244
1107.775305	708.2000122
1108.335074	712.7999878
1108.894786	712.0
1109.45444	710.0
1110.014038	714.5999756
1110.573578	709.2000122
1111.133061	708.0
1111.692486	709.5999756
1112.251854	708.0
1112.811165	713.0
1113.370419	711.2000122
1113.929616	711.5999756
1114.488755	709.4000244
1115.047837	711.2000122
1115.606862	712.0
1116.16583	710.4000244
1116.72474	713.0
1117.283593	710.7999878
1117.842389	708.0
1118.401128	712.2000122
1118.959809	710.4000244
1119.518433	707.5999756
1120.077	706.4000244
1120.63551	710.0
1121.193963	713.2000122
1121.752358	709.2000122
1122.310697	713.5999756
1122.868978	708.0
1123.427202	708.5999756
1123.985368	717.2000122
1124.543478	706.4000244
1125.10153	709.2000122
1125.659526	708.4000244
1126.217464	710.7999878
1126.775345	708.5999756
1127.333168	712.0
1127.890935	710.2000122
1128.448644	709.2000122
1129.006297	715.0
1129.563892	712.0
1130.12143	712.0
1130.678911	715.4000244
1131.236335	710.7999878
1131.793701	705.5999756
1132.351011	710.5999756
1132.908263	714.7999878
1133.465458	715.2000122
1134.022597	713.0
1134.579678	708.2000122
1135.136702	711.7999878
1135.693669	712.2000122
1136.250578	711.2000122
1136.807431	711.0
1137.364227	708.7999878
1137.920965	711.4000244
1138.477647	709.4000244
1139.034271	713.4000244
1139.590839	715.7999878
1140.147349	710.7999878
1140.703802	711.0
1141.260198	714.5999756
1141.816537	710.0
1142.37282	714.2000122
1142.929045	713.5999756
1143.485213	724.5999756
1144.041323	717.0
1144.597377	715.2000122
1145.153374	712.5999756
1145.709314	712.5999756
1146.265197	712.5999756
1146.821023	722.2000122
1147.376792	725.2000122
1147.932503	726.0
1148.488158	719.2000122
1149.043756	721.7999878
1149.599297	733.5999756
1150.154781	780.5999756
1150.710207	831.2000122
1151.265577	786.7999878
1151.82089	731.5999756
1152.376146	718.5999756
1152.931345	708.4000244
1153.486487	714.5999756
1154.041572	713.5999756
1154.5966	708.2000122
1155.151571	711.4000244
1155.706485	713.7999878
1156.261342	708.0
1156.816142	707.2000122
1157.370885	711.4000244
1157.925572	711.2000122
1158.480201	711.5999756
1159.034774	709.5999756
1159.589289	710.0
1160.143748	709.7999878
1160.698149	710.4000244
1161.252494	711.0
1161.806782	707.7999878
1162.361013	708.7999878
1162.915187	713.0
1163.469304	713.2000122
1164.023364	714.7999878
1164.577368	710.2000122
1165.131314	715.7999878
1165.685204	712.4000244
1166.239036	716.4000244
1166.792812	709.5999756
1167.346531	711.4000244
1167.900193	713.5999756
1168.453798	713.2000122
1169.007347	713.0
1169.560838	713.5999756
1170.114273	710.4000244
1170.66765	716.5999756
1171.220971	711.5999756
1171.774235	712.4000244
1172.327443	713.7999878
1172.880593	710.5999756
1173.433687	710.0
1173.986723	707.4000244
1174.539703	711.2000122
1175.092626	710.4000244
1175.645493	711.0
1176.198302	710.5999756
1176.751055	712.4000244
1177.303751	709.7999878
1177.85639	709.2000122
1178.408972	710.4000244
1178.961498	710.2000122
1179.513966	709.0
1180.066378	708.5999756
1180.618733	716.2000122
1181.171032	713.2000122
1181.723273	709.4000244
1182.275458	709.4000244
1182.827586	712.0
1183.379657	710.2000122
1183.931672	710.2000122
1184.48363	712.2000122
1185.035531	711.0
1185.587375	713.2000122
1186.139162	711.2000122
1186.690893	712.7999878
1187.242567	710.5999756
1187.794184	710.7999878
1188.345745	712.0
1188.897249	714.7999878
1189.448696	709.5999756
1190.000086	712.7999878
1190.55142	712.0
1191.102697	710.2000122
1191.653918	709.7999878
1192.205081	709.4000244
1192.756188	710.5999756
1193.858232	703.0
1194.409169	711.0
1194.960049	708.4000244
1195.510872	711.0
1196.061639	708.0
1196.612349	709.7999878
1197.163003	712.5999756
1197.713599	705.2000122
1198.264139	714.4000244
1198.814623	705.4000244
1199.36505	704.5999756
1199.91542	716.5999756
1200.465734	706.2000122
1201.01599	709.4000244
1201.566191	716.0
1202.116334	707.7999878
1202.666421	708.7999878
1203.216452	711.7999878
1203.766425	711.7999878
1204.316343	713.2000122
1204.866203	710.4000244
1205.416007	708.2000122
1205.965754	711.0
1206.515445	713.5999756
1207.065079	708.4000244
1207.614657	714.4000244
1208.164177	709.5999756
1208.713642	712.4000244
1209.26305	709.7999878
1209.812401	712.0
1210.361695	710.7999878
1210.910933	711.7999878
1211.460115	709.2000122
1212.00924	710.0
1212.558308	708.0
1213.10732	710.7999878
1213.656275	709.0
1214.205174	711.2000122
1214.754016	709.7999878
1215.302801	709.4000244
1215.85153	709.5999756
1216.400203	707.0
1216.948819	710.0
1217.497378	710.7999878
1218.045881	710.5999756
1218.594327	711.5999756
1219.142717	711.7999878
1219.691051	706.5999756
1220.239327	707.2000122
1220.787548	712.4000244
1221.335712	711.4000244
1221.883819	709.4000244
1222.43187	701.7999878
1222.979864	705.5999756
1223.527802	709.2000122
1224.075683	711.5999756
1224.623508	713.5999756
1225.171277	710.7999878
1225.718989	707.4000244
1226.266644	708.2000122
1226.814243	711.7999878
1227.361786	706.4000244
1227.909272	713.2000122
1228.456702	706.0
1229.004075	710.7999878
1229.551392	708.2000122
1230.098652	713.2000122
1230.645856	710.7999878
1231.193003	708.0
1231.740094	709.2000122
1232.287129	710.0
1232.834107	713.4000244
1233.381029	710.0
1233.927894	708.0
1234.474703	709.7999878
1235.021455	712.0
1235.568151	711.0
1236.114791	710.2000122
1236.661374	707.4000244
1237.207901	710.4000244
1237.754372	713.2000122
1238.300786	714.4000244
1238.847144	712.0
1239.393445	711.0
1239.93969	709.2000122
1240.485879	710.7999878
1241.032011	709.0
1241.578087	712.0
1242.124106	710.2000122
1242.67007	711.2000122
1243.215976	713.0
1243.761827	711.5999756
1244.307621	711.7999878
1244.853359	713.5999756
1245.39904	707.7999878
1245.944665	714.4000244
1246.490234	709.2000122
1247.035746	710.7999878
1247.581203	711.7999878
1248.126602	715.5999756
1248.671946	704.4000244
1249.217233	710.2000122
1249.762464	712.7999878
1250.307638	709.0
1250.852757	715.2000122
1251.397819	713.2000122
1251.942824	710.4000244
1252.487774	711.5999756
1253.032667	710.7999878
1253.577503	712.0
1254.122284	710.5999756
1254.667008	711.2000122
1255.211676	709.5999756
1255.756288	709.4000244
1256.300843	711.2000122
1256.845342	709.5999756
1257.389785	712.0
1257.934172	709.5999756
1258.478502	711.5999756
1259.022776	716.4000244
1259.566994	711.5999756
1260.111156	724.4000244
1260.655261	711.7999878
1261.199311	709.2000122
1261.743304	714.4000244
1262.28724	711.2000122
1262.831121	712.0
1263.374945	716.2000122
1263.918713	717.4000244
1264.462425	718.7999878
1265.006081	739.4000244
1265.54968	738.5999756
1266.093223	722.5999756
1266.636711	718.4000244
1267.180141	710.2000122
1267.723516	713.0
1268.266835	712.0
1268.810097	710.4000244
1269.353303	718.7999878
1269.896453	711.2000122
1270.439547	709.5999756
1270.982584	708.5999756
1271.525566	710.5999756
1272.068491	711.2000122
1272.61136	716.4000244
1273.154173	714.4000244
1273.69693	706.7999878
1274.239631	706.5999756
1274.782275	712.4000244
1275.324864	711.5999756
1275.867396	709.7999878
1276.409872	711.4000244
1276.952292	708.2000122
1277.494656	711.5999756
1278.036964	710.4000244
1278.579215	711.7999878
1279.121411	712.2000122
1279.66355	709.5999756
1280.205634	707.0
1280.747661	707.7999878
1281.289632	710.7999878
1281.831547	712.2000122
1282.373406	715.2000122
1282.915209	719.4000244
1283.456955	722.2000122
1283.998646	728.5999756
1284.540281	767.2000122
1285.081859	942.7999878
1285.623381	1194.0
1286.164848	889.7999878
1286.706258	744.5999756
1287.247612	729.4000244
1287.788911	715.4000244
1288.330153	717.7999878
1288.871339	716.4000244
1289.412469	710.0
1289.953543	713.0
1290.494561	711.5999756
1291.035523	708.4000244
1291.576428	710.2000122
1292.117278	710.2000122
1292.658072	707.4000244
1293.19881	709.7999878
1293.739492	711.0
1294.280118	706.5999756
1294.820687	711.7999878
1295.361201	717.0
1295.901659	711.2000122
1296.442061	712.5999756
1296.982406	710.2000122
1297.522696	713.0
1298.06293	707.5999756
1298.603108	704.7999878
1299.143229	707.5999756
1299.683295	711.4000244
1300.223305	713.0
1300.763259	708.2000122
1301.303157	707.7999878
1301.842999	710.7999878
1302.382785	710.5999756
1302.922515	704.4000244
1303.462189	709.5999756
1304.001807	716.4000244
1304.541369	706.5999756
1305.080875	711.7999878
1305.620326	718.0
1306.15972	706.2000122
1306.699058	710.2000122
1307.238341	712.4000244
1307.777567	712.5999756
1308.316738	709.7999878
1308.855853	711.7999878
1309.394912	710.5999756
1309.933915	705.4000244
1310.472862	705.7999878
1311.011753	711.7999878
1311.550588	707.2000122
1312.089367	710.4000244
1312.62809	714.7999878
1313.166758	710.7999878
1313.70537	709.5999756
1314.243925	713.2000122
1314.782425	712.2000122
1315.320869	714.2000122
1315.859257	709.0
1316.397589	711.7999878
1316.935866	708.4000244
1317.474086	710.2000122
1318.012251	708.0
1318.55036	713.4000244
1319.088413	711.2000122
1319.62641	710.0
1320.164351	711.5999756
1320.702236	708.5999756
1321.240066	707.5999756
1321.777839	713.5999756
1322.315557	712.0
1322.853219	714.0
1323.390826	708.7999878
1323.928376	714.5999756
1324.465871	713.0
1325.003309	705.5999756
1325.540692	710.7999878
1326.07802	711.5999756
1326.615291	710.7999878
1327.152506	715.7999878
1327.689666	714.5999756
1328.22677	712.0
1328.763818	711.4000244
1329.300811	708.7999878
1329.837747	710.7999878
1330.374628	707.5999756
1330.911453	709.7999878
1331.448222	709.0
1331.984936	709.4000244
1332.521594	714.2000122
1333.058196	708.7999878
1333.594742	713.0
1334.131232	709.5999756
1334.667667	717.7999878
1335.204046	710.2000122
1335.740369	708.7999878
1336.276637	710.4000244
1336.812848	712.2000122
1337.349004	712.2000122
1337.885105	711.5999756
1338.421149	709.7999878
1338.957138	713.0
1339.493071	706.4000244
1340.028949	710.0
1340.56477	711.5999756
1341.100536	711.2000122
1341.636246	715.4000244
1342.171901	715.0
1342.7075	710.5999756
1343.243043	712.7999878
1343.77853	709.4000244
1344.313962	715.0
1344.849338	705.7999878
1345.384659	712.2000122
1345.919923	709.7999878
1346.455133	710.5999756
1346.990286	708.2000122
1347.525384	714.5999756
1348.060426	716.4000244
1348.595412	708.4000244
1349.130343	710.7999878
1349.665218	707.7999878
1350.200037	714.2000122
1350.734801	712.5999756
1351.269509	710.5999756
1351.804162	711.5999756
1352.338758	716.2000122
1352.8733	712.5999756
1353.407785	712.0
1353.942215	709.5999756
1354.476589	709.7999878
1355.010908	713.2000122
1355.545171	713.5999756
1356.079379	715.0
1356.61353	711.2000122
1357.147627	713.5999756
1357.681667	706.0
1358.215652	711.7999878
1358.749582	712.5999756
1359.283456	713.4000244
1359.817274	715.0
1360.351037	717.2000122
1360.884744	713.2000122
1361.418395	711.7999878
1361.951991	712.7999878
1362.485531	710.2000122
1363.019016	713.0
1363.552445	714.2000122
1364.085819	712.2000122
1364.619137	713.5999756
1365.1524	714.4000244
1365.685607	714.0
1366.218758	715.4000244
1366.751854	715.7999878
1367.284894	716.5999756
1367.817879	711.2000122
1368.350808	716.5999756
1368.883682	716.2000122
1369.4165	709.0
1369.949263	720.5999756
1370.48197	722.4000244
1371.014622	715.4000244
1371.547218	715.0
1372.079758	710.0
1372.612244	712.0
1373.144673	717.2000122
1373.677047	715.7999878
1374.209366	713.5999756
1374.741629	703.5999756
1375.273836	706.7999878
1375.805989	717.4000244
1376.338085	714.2000122
1376.870126	711.5999756
1377.402112	711.4000244
1377.934042	710.5999756
1378.465917	713.7999878
1378.997736	716.5999756
1379.5295	713.4000244
1380.061208	716.7999878
1380.592861	716.2000122
1381.124459	714.7999878
1381.656	711.5999756
1382.187487	721.4000244
1382.718918	707.2000122
1383.250294	713.2000122
1383.781614	712.4000244
1384.312879	717.4000244
1384.844088	719.0
1385.375242	717.5999756
1385.90634	721.5999756
1386.437383	722.5999756
1386.968371	726.2000122
1387.499303	750.0
1388.03018	872.4000244
1388.561001	1448.800049
1389.091767	1231.0
1389.622478	793.7999878
1390.153133	738.5999756
1390.683733	725.2000122
1391.214277	722.0
1391.744766	711.7999878
1392.2752	717.4000244
1392.805578	717.4000244
1393.335901	713.7999878
1393.866168	714.4000244
1394.396381	715.7999878
1394.926537	717.0
1395.456639	715.5999756
1395.986685	714.4000244
1396.516675	716.0
1397.046611	715.0
1397.576491	712.2000122
1398.106315	711.4000244
1398.636084	711.0
1399.165798	716.7999878
1399.695457	712.5999756
1400.22506	710.2000122
1400.754608	713.2000122
1401.284101	713.0
1401.813538	713.2000122
1402.34292	714.7999878
1402.872247	715.2000122
1403.401518	716.4000244
1403.930734	710.4000244
1404.459895	717.4000244
1404.989	712.4000244
1405.51805	716.0
1406.047045	712.5999756
1406.575984	714.2000122
1407.104869	717.7999878
1407.633697	715.2000122
1408.162471	717.7999878
1408.691189	718.0
1409.219852	725.2000122
1409.74846	765.7999878
1410.277013	774.2000122
1410.80551	725.4000244
1411.333952	715.0
1411.862339	715.0
1412.39067	713.7999878
1412.918946	715.0
1413.447167	716.4000244
1413.975333	710.7999878
1414.503444	720.2000122
1415.031499	713.4000244
1415.559499	725.7999878
1416.087444	715.4000244
1416.615333	711.7999878
1417.143167	712.4000244
1417.670947	712.2000122
1418.19867	710.4000244
1418.726339	715.4000244
1419.253952	712.5999756
1419.781511	715.5999756
1420.309014	711.4000244
1420.836461	713.5999756
1421.363854	713.4000244
1421.891191	713.4000244
1422.418474	714.5999756
1422.945701	712.0
1423.472872	713.7999878
1423.999989	713.5999756
1424.52705	715.4000244
1425.054057	716.5999756
1425.581008	715.0
1426.107904	715.7999878
1426.634745	715.4000244
1427.16153	714.4000244
1427.688261	714.0
1428.214936	710.2000122
1428.741556	715.4000244
1429.268121	711.2000122
1429.794631	714.2000122
1430.321085	711.2000122
1430.847485	713.5999756
1431.373829	714.0
1431.900118	710.2000122
1432.426353	716.5999756
1432.952532	713.0
1433.478655	713.0
1434.004724	712.2000122
1434.530738	709.5999756
1435.056696	711.0
1435.5826	713.2000122
1436.108448	719.0
1436.634241	712.0
1437.159979	709.7999878
1437.685662	712.2000122
1438.21129	713.0
1438.736863	716.0
1439.262381	710.7999878
1439.787843	712.4000244
1440.313251	717.4000244
1440.838603	717.4000244
1441.3639	708.5999756
1441.889143	713.4000244
1442.41433	712.2000122
1442.939462	714.2000122
1443.464539	710.5999756
1443.989561	710.0
1444.514528	712.4000244
1445.03944	709.0
1445.564297	714.7999878
1446.089099	715.5999756
1446.613846	713.2000122
1447.138537	716.5999756
1447.663174	711.7999878
1448.187756	714.0
1448.712282	713.0
1449.236754	712.2000122
1449.761171	713.5999756
1450.285532	710.5999756
1450.809839	711.7999878
1451.33409	713.4000244
1451.858287	712.5999756
1452.382428	709.2000122
1452.906515	712.4000244
1453.430546	710.4000244
1453.954523	715.4000244
1454.478444	713.0
1455.002311	711.7999878
1455.526123	714.4000244
1456.049879	714.5999756
1456.573581	713.0
1457.097227	711.2000122
1457.620819	713.4000244
1458.144356	712.4000244
1458.667837	715.0
1459.191264	714.7999878
1459.714636	717.0
1460.237952	709.7999878
1460.761214	712.4000244
1461.284421	715.0
1461.807573	714.5999756
1462.33067	716.5999756
1462.853712	719.0
1463.376699	721.4000244
1463.899632	712.5999756
1464.422509	716.2000122
1464.945331	712.4000244
1465.468099	712.5999756
1465.990811	709.7999878
1466.513469	716.7999878
1467.036071	712.7999878
1467.558619	715.5999756
1468.081112	715.2000122
1468.60355	711.5999756
1469.125933	716.4000244
1469.648261	712.0
1470.170534	711.7999878
1470.692752	711.2000122
1471.214916	713.4000244
1471.737024	710.2000122
1472.259078	716.2000122
1472.781077	708.2000122
1473.303021	717.4000244
1473.82491	715.5999756
1474.346744	713.0
1474.868523	712.7999878
1475.390248	713.7999878
1475.911917	716.4000244
1476.433532	712.2000122
1476.955092	716.0
1477.476597	714.2000122
1477.998047	713.7999878
1478.519442	713.7999878
1479.040783	713.5999756
1479.562068	713.4000244
1480.083299	713.2000122
1480.604475	711.0
1481.125596	716.7999878
1481.646663	710.5999756
1482.167674	715.5999756
1482.688631	711.2000122
1483.209533	714.4000244
1483.73038	713.7999878
1484.251172	709.5999756
1484.771909	715.5999756
1485.292592	709.7999878
1485.81322	713.4000244
1486.333793	714.5999756
1486.854311	711.2000122
1487.374775	718.0
1487.895183	711.0
1488.415537	713.4000244
1488.935836	716.2000122
1489.456081	717.0
1489.97627	711.7999878
1490.496405	711.0
1491.016485	713.0
1491.536511	713.4000244
1492.056481	713.2000122
1492.576397	715.2000122
1493.096258	711.2000122
1493.616064	713.2000122
1494.135816	711.0
1494.655513	713.0
1495.175155	711.0
1495.694742	714.5999756
1496.214274	714.7999878
1496.733752	715.0
1497.253175	715.0
1497.772544	714.4000244
1498.291858	718.2000122
1498.811116	712.4000244
1499.330321	713.2000122
1499.84947	717.2000122
1500.368565	716.2000122
1500.887605	712.0
1501.406591	711.0
1501.925521	713.2000122
1502.444397	714.5999756
1502.963219	714.4000244
1503.481985	710.7999878
1504.000697	713.0
1504.519355	713.7999878
1505.037957	710.5999756
1505.556505	711.5999756
1506.074999	710.4000244
1506.593437	710.5999756
1507.111821	715.5999756
1507.63015	711.7999878
1508.148425	716.2000122
1508.666645	710.7999878
1509.18481	711.7999878
1509.702921	714.4000244
1510.220977	714.0
1510.738979	717.2000122
1511.256925	714.4000244
1511.774817	709.2000122
1512.292655	715.2000122
1512.810438	713.7999878
1513.328166	714.2000122
1513.84584	712.2000122
1514.363459	719.2000122
1514.881023	718.2000122
1515.398533	717.4000244
1515.915988	714.4000244
1516.433389	717.5999756
1516.950734	715.5999756
1517.468026	717.4000244
1517.985263	713.0
1518.502445	715.0
1519.019572	710.0
1519.536645	709.7999878
1520.053664	713.4000244
1520.570628	713.2000122
1521.087537	714.4000244
1521.604392	718.2000122
1522.121192	713.4000244
1522.637937	716.4000244
1523.154628	712.7999878
1523.671265	716.0
1524.187847	717.5999756
1524.704374	716.7999878
1525.220847	719.5999756
1525.737265	717.2000122
1526.253629	717.5999756
1526.769938	718.7999878
1527.286192	714.4000244
1527.802392	714.0
1528.318538	716.2000122
1528.834629	716.4000244
1529.350666	716.4000244
1529.866648	718.2000122
1530.382575	715.7999878
1530.898448	714.4000244
1531.414266	716.2000122
1531.93003	715.2000122
1532.44574	715.5999756
1532.961395	713.0
1533.476995	715.5999756
1533.992541	714.5999756
1534.508033	711.0
1535.02347	711.7999878
1535.538852	714.7999878
1536.05418	718.5999756
1536.569454	714.4000244
1537.084673	717.7999878
1537.599837	714.2000122
1538.114947	716.7999878
1538.630003	714.4000244
1539.145004	714.0
1539.659951	714.2000122
1540.174843	712.4000244
1540.689681	715.0
1541.204465	710.7999878
1541.719194	716.5999756
1542.233868	714.0
1542.748488	714.0
1543.263054	710.4000244
1543.777565	720.5999756
1544.292022	717.2000122
1544.806424	711.5999756
1545.320772	713.7999878
1545.835066	718.7999878
1546.349305	713.2000122
1546.863489	713.4000244
1547.37762	721.0
1547.891696	719.2000122
1548.405717	713.5999756
1548.919684	712.7999878
1549.433597	715.5999756
1549.947455	716.7999878
1550.461259	716.7999878
1550.975009	714.7999878
1551.488704	711.0
1552.002345	713.4000244
1552.515931	714.5999756
1553.029463	714.4000244
1553.542941	716.4000244
1554.056364	716.4000244
1554.569733	717.0
1555.083048	712.4000244
1555.596308	716.4000244
1556.109514	718.4000244
1556.622665	717.0
1557.135762	711.4000244
1557.648805	720.4000244
1558.161794	713.0
1558.674728	717.4000244
1559.187608	716.4000244
1559.700433	711.4000244
1560.213205	718.4000244
1560.725921	715.0
1561.238584	721.2000122
1561.751192	715.4000244
1562.263746	718.4000244
1562.776246	713.2000122
1563.288691	712.5999756
1563.801082	716.5999756
1564.313419	714.2000122
1564.825701	713.2000122
1565.337929	717.2000122
1565.850103	718.7999878
1566.362223	719.2000122
1566.874288	720.4000244
1567.386299	720.2000122
1567.898256	717.7999878
1568.410158	717.5999756
1568.922007	718.4000244
1569.4338	715.0
1569.94554	716.5999756
1570.457226	717.4000244
1570.968857	714.7999878
1571.480434	718.5999756
1571.991956	719.4000244
1572.503425	716.7999878
1573.014839	712.0
1573.526199	720.2000122
1574.037505	716.0
1574.548756	721.5999756
1575.059953	717.7999878
1575.571096	722.4000244
1576.082185	715.7999878
1576.59322	716.4000244
1577.1042	715.7999878
1577.615126	715.7999878
1578.125998	716.7999878
1578.636816	716.5999756
1579.14758	719.7999878
1579.658289	720.4000244
1580.168944	715.2000122
1580.679545	716.7999878
1581.190092	717.2000122
1581.700585	713.7999878
1582.211023	716.4000244
1582.721407	720.2000122
1583.231737	718.4000244
1583.742013	718.2000122
1584.252235	714.2000122
1584.762403	714.5999756
1585.272516	719.0
1585.782575	712.7999878
1586.292581	716.4000244
1586.802532	718.5999756
1587.312428	716.4000244
1587.822271	720.4000244
1588.33206	717.5999756
1588.841794	715.7999878
1589.351474	721.2000122
1589.8611	715.7999878
1590.370672	723.7999878
1590.88019	720.2000122
1591.389654	720.7999878
1591.899064	718.4000244
1592.408419	717.5999756
