1042.452273	759.5999756
1043.018714	757.0
1043.585098	755.7999878
1044.151424	755.2000122
1044.717692	760.7999878
1045.283903	755.4000244
1045.850056	757.7999878
1046.416151	762.7999878
1046.982188	750.5999756
1047.548167	748.0
1048.114089	752.7999878
1048.679953	754.0
1049.24576	753.5999756
1049.811509	748.7999878
1050.3772	754.5999756
1050.942833	754.2000122
1051.508408	749.2000122
1052.073926	752.2000122
1052.639387	750.0
1053.204789	751.7999878
1053.770134	751.7999878
1054.335421	746.4000244
1054.900651	752.4000244
1055.465823	754.4000244
1056.030937	752.7999878
1056.595993	747.5999756
1057.160992	749.7999878
1057.725934	747.5999756
1058.290817	745.4000244
1058.855643	749.4000244
1059.420411	747.2000122
1059.985122	747.7999878
1060.549775	754.2000122
1061.114371	750.4000244
1061.678908	745.4000244
1062.243389	746.7999878
1062.807811	751.7999878
1063.372176	747.2000122
1063.936483	741.7999878
1064.500733	746.2000122
1065.064925	744.2000122
1065.62906	745.5999756
1066.193137	742.7999878
1066.757156	749.0
1067.321118	746.4000244
1067.885022	748.4000244
1068.448869	744.0
1069.012658	745.7999878
1069.57639	739.7999878
1070.140063	751.2000122
1070.70368	744.7999878
1071.267239	744.5999756
1071.83074	738.7999878
1072.394184	744.5999756
1072.95757	743.2000122
1073.520899	744.2000122
1074.08417	746.4000244
1074.647383	747.0
1075.21054	748.2000122
1075.773638	739.0
1076.336679	743.7999878
1076.899663	744.0
1077.462589	745.5999756
1078.025457	749.2000122
1078.588268	747.0
1079.151022	743.4000244
1079.713718	748.2000122
1080.276356	742.7999878
1080.838937	743.5999756
1081.401461	743.2000122
1081.963927	745.4000244
1082.526336	737.0
1083.088687	745.0
1083.650981	745.2000122
1084.213217	747.2000122
1084.775396	738.5999756
1085.337517	741.0
1085.899581	741.0
1086.461587	744.7999878
1087.023536	741.5999756
1087.585428	742.7999878
1088.147262	740.7999878
1088.709039	740.7999878
1089.270758	738.2000122
1089.83242	743.7999878
1090.394024	740.0
1090.955571	734.5999756
1091.517061	741.5999756
1092.078493	741.0
1092.639868	743.2000122
1093.201185	741.7999878
1093.762445	742.0
1094.323648	743.5999756
1094.884793	740.7999878
1095.445881	742.7999878
1096.006911	740.2000122
1096.567884	744.7999878
1097.1288	748.4000244
1097.689659	741.7999878
1098.25046	739.4000244
1098.811203	746.7999878
1099.37189	740.0
1099.932518	737.5999756
1100.49309	738.0
1101.053604	733.2000122
1101.614061	736.5999756
1102.174461	736.0
1102.734803	741.5999756
1103.295088	741.4000244
1103.855316	744.5999756
1104.415486	744.2000122
1104.975599	738.7999878
1105.535655	738.7999878
1106.095653	739.4000244
1106.655594	745.0
1107.215478	744.4000244
1107.775305	740.2000122
1108.335074	735.7999878
1108.894786	739.5999756
1109.45444	740.0
1110.014038	738.7999878
1110.573578	735.0
1111.133061	746.4000244
1111.692486	738.7999878
1112.251854	737.5999756
1112.811165	732.2000122
1113.370419	737.2000122
1113.929616	738.2000122
1114.488755	741.4000244
1115.047837	731.4000244
1115.606862	737.4000244
1116.16583	739.5999756
1116.72474	745.0
1117.283593	734.7999878
1117.842389	739.5999756
1118.401128	738.7999878
1118.959809	738.2000122
1119.518433	738.4000244
1120.077	741.2000122
1120.63551	736.5999756
1121.193963	738.7999878
1121.752358	741.2000122
1122.310697	737.7999878
1122.868978	731.5999756
1123.427202	735.4000244
1123.985368	735.7999878
1124.543478	740.2000122
1125.10153	734.7999878
1125.659526	738.5999756
1126.217464	738.4000244
1126.775345	738.0
1127.333168	743.7999878
1127.890935	737.2000122
1128.448644	744.2000122
1129.006297	737.0
1129.563892	733.4000244
1130.12143	739.7999878
1130.678911	744.2000122
1131.236335	739.4000244
1131.793701	735.5999756
1132.351011	738.5999756
1132.908263	733.7999878
1133.465458	733.5999756
1134.022597	738.5999756
1134.579678	736.4000244
1135.136702	735.2000122
1135.693669	737.4000244
1136.250578	738.7999878
1136.807431	735.2000122
1137.364227	733.7999878
1137.920965	738.5999756
1138.477647	737.2000122
1139.034271	740.5999756
1139.590839	739.0
1140.147349	738.2000122
1140.703802	738.0
1141.260198	736.7999878
1141.816537	735.4000244
1142.37282	736.0
1142.929045	737.5999756
1143.485213	742.0
1144.041323	736.4000244
1144.597377	742.2000122
1145.153374	738.4000244
1145.709314	735.7999878
1146.265197	738.7999878
1146.821023	739.2000122
1147.376792	748.0
1147.932503	741.5999756
1148.488158	741.5999756
1149.043756	740.7999878
1149.599297	735.7999878
1150.154781	751.2000122
1150.710207	757.2000122
1151.265577	746.4000244
1151.82089	737.4000244
1152.376146	741.4000244
1152.931345	740.5999756
1153.486487	739.2000122
1154.041572	736.7999878
1154.5966	740.5999756
1155.151571	739.0
1155.706485	740.4000244
1156.261342	742.4000244
1156.816142	736.5999756
1157.370885	736.4000244
1157.925572	743.7999878
1158.480201	735.5999756
1159.034774	736.2000122
1159.589289	735.2000122
1160.143748	739.7999878
1160.698149	735.4000244
1161.252494	732.5999756
1161.806782	733.0
1162.361013	732.7999878
1162.915187	733.4000244
1163.469304	736.7999878
1164.023364	735.7999878
1164.577368	736.4000244
1165.131314	740.4000244
1165.685204	735.0
1166.239036	738.5999756
1166.792812	736.5999756
1167.346531	733.0
1167.900193	733.5999756
1168.453798	742.0
1169.007347	737.2000122
1169.560838	730.5999756
1170.114273	733.7999878
1170.66765	736.5999756
1171.220971	732.4000244
1171.774235	739.4000244
1172.327443	735.2000122
1172.880593	735.2000122
1173.433687	737.4000244
1173.986723	736.5999756
1174.539703	736.4000244
1175.092626	733.5999756
1175.645493	735.4000244
1176.198302	734.7999878
1176.751055	730.5999756
1177.303751	735.5999756
1177.85639	738.2000122
1178.408972	732.0
1178.961498	736.5999756
1179.513966	735.0
1180.066378	731.2000122
1180.618733	733.2000122
1181.171032	734.7999878
1181.723273	738.4000244
1182.275458	732.4000244
1182.827586	733.4000244
1183.379657	731.4000244
1183.931672	737.2000122
1184.48363	736.4000244
1185.035531	738.4000244
1185.587375	733.5999756
1186.139162	731.5999756
1186.690893	734.0
1187.242567	734.2000122
1187.794184	732.5999756
1188.345745	731.2000122
1188.897249	737.2000122
1189.448696	734.0
1190.000086	736.7999878
1190.55142	732.0
1191.102697	732.0
1191.653918	735.2000122
1192.205081	730.0
1192.756188	732.7999878
1193.858232	731.5999756
1194.409169	731.5999756
1194.960049	731.7999878
1195.510872	734.4000244
1196.061639	732.0
1196.612349	738.5999756
1197.163003	728.5999756
1197.713599	731.2000122
1198.264139	735.0
1198.814623	729.2000122
1199.36505	732.7999878
1199.91542	737.5999756
1200.465734	730.2000122
1201.01599	727.7999878
1201.566191	730.0
1202.116334	733.5999756
1202.666421	732.0
1203.216452	736.4000244
1203.766425	727.0
1204.316343	731.2000122
1204.866203	735.2000122
1205.416007	732.0
1205.965754	733.0
1206.515445	731.0
1207.065079	729.7999878
1207.614657	740.2000122
1208.164177	734.7999878
1208.713642	732.0
1209.26305	729.2000122
1209.812401	734.5999756
1210.361695	734.5999756
1210.910933	735.0
1211.460115	728.0
1212.00924	735.0
1212.558308	729.0
1213.10732	733.4000244
1213.656275	724.5999756
1214.205174	737.5999756
1214.754016	734.4000244
1215.302801	730.5999756
1215.85153	732.4000244
1216.400203	730.5999756
1216.948819	730.4000244
1217.497378	732.4000244
1218.045881	732.5999756
1218.594327	735.7999878
1219.142717	735.0
1219.691051	736.7999878
1220.239327	728.2000122
1220.787548	730.7999878
1221.335712	728.5999756
1221.883819	732.4000244
1222.43187	734.2000122
1222.979864	733.4000244
1223.527802	730.5999756
1224.075683	730.2000122
1224.623508	729.0
1225.171277	728.2000122
1225.718989	729.0
1226.266644	728.5999756
1226.814243	729.5999756
1227.361786	733.5999756
1227.909272	731.2000122
1228.456702	734.0
1229.004075	730.4000244
1229.551392	729.5999756
1230.098652	731.0
1230.645856	734.0
1231.193003	735.7999878
1231.740094	729.7999878
1232.287129	732.2000122
1232.834107	736.2000122
1233.381029	732.5999756
1233.927894	730.0
1234.474703	727.5999756
1235.021455	729.5999756
1235.568151	727.0
1236.114791	725.2000122
1236.661374	732.4000244
1237.207901	730.0
1237.754372	728.0
1238.300786	727.5999756
1238.847144	728.5999756
1239.393445	728.4000244
1239.93969	725.0
1240.485879	728.7999878
1241.032011	727.2000122
1241.578087	728.5999756
1242.124106	732.2000122
1242.67007	725.2000122
1243.215976	733.5999756
1243.761827	729.7999878
1244.307621	725.2000122
1244.853359	729.0
1245.39904	728.4000244
1245.944665	730.4000244
1246.490234	727.4000244
1247.035746	727.5999756
1247.581203	723.7999878
1248.126602	732.0
1248.671946	726.7999878
1249.217233	730.0
1249.762464	728.7999878
1250.307638	725.2000122
1250.852757	730.2000122
1251.397819	728.0
1251.942824	726.2000122
1252.487774	731.2000122
1253.032667	726.2000122
1253.577503	727.2000122
1254.122284	731.2000122
1254.667008	729.5999756
1255.211676	733.5999756
1255.756288	725.5999756
1256.300843	728.5999756
1256.845342	731.4000244
1257.389785	723.4000244
1257.934172	727.4000244
1258.478502	728.5999756
1259.022776	723.4000244
1259.566994	725.0
1260.111156	737.0
1260.655261	731.2000122
1261.199311	724.2000122
1261.743304	731.5999756
1262.28724	729.4000244
1262.831121	730.5999756
1263.374945	730.7999878
1263.918713	723.7999878
1264.462425	730.7999878
1265.006081	737.7999878
1265.54968	731.5999756
1266.093223	729.4000244
1266.636711	727.2000122
1267.180141	731.4000244
1267.723516	727.2000122
1268.266835	727.7999878
1268.810097	726.0
1269.353303	723.4000244
1269.896453	724.7999878
1270.439547	726.4000244
1270.982584	731.0
1271.525566	727.2000122
1272.068491	722.5999756
1272.61136	723.7999878
1273.154173	728.0
1273.69693	725.0
1274.239631	729.5999756
1274.782275	727.7999878
1275.324864	725.2000122
1275.867396	728.2000122
1276.409872	725.2000122
1276.952292	724.2000122
1277.494656	728.2000122
1278.036964	730.0
1278.579215	719.4000244
1279.121411	729.0
1279.66355	729.4000244
1280.205634	728.2000122
1280.747661	724.0
1281.289632	729.0
1281.831547	732.2000122
1282.373406	723.4000244
1282.915209	729.7999878
1283.456955	734.4000244
1283.998646	734.2000122
1284.540281	743.0
1285.081859	785.4000244
1285.623381	853.4000244
1286.164848	765.7999878
1286.706258	732.4000244
1287.247612	727.7999878
1287.788911	728.7999878
1288.330153	729.0
1288.871339	729.0
1289.412469	727.5999756
1289.953543	722.2000122
1290.494561	725.0
1291.035523	725.4000244
1291.576428	727.7999878
1292.117278	725.5999756
1292.658072	729.7999878
1293.19881	727.7999878
1293.739492	725.0
1294.280118	724.2000122
1294.820687	723.5999756
1295.361201	726.5999756
1295.901659	727.2000122
1296.442061	726.2000122
1296.982406	718.4000244
1297.522696	726.0
1298.06293	722.2000122
1298.603108	726.7999878
1299.143229	727.0
1299.683295	725.0
1300.223305	727.7999878
1300.763259	727.7999878
1301.303157	723.5999756
1301.842999	723.4000244
1302.382785	730.0
1302.922515	726.7999878
1303.462189	730.0
1304.001807	724.7999878
1304.541369	724.5999756
1305.080875	727.7999878
1305.620326	727.0
1306.15972	724.4000244
1306.699058	728.0
1307.238341	724.0
1307.777567	725.4000244
1308.316738	725.7999878
1308.855853	726.7999878
1309.394912	724.7999878
1309.933915	722.5999756
1310.472862	724.7999878
1311.011753	728.0
1311.550588	725.0
1312.089367	723.4000244
1312.62809	726.4000244
1313.166758	722.2000122
1313.70537	728.2000122
1314.243925	727.7999878
1314.782425	731.5999756
1315.320869	724.0
1315.859257	727.2000122
1316.397589	725.0
1316.935866	728.2000122
1317.474086	725.5999756
1318.012251	726.5999756
1318.55036	726.2000122
1319.088413	727.7999878
1319.62641	722.7999878
1320.164351	726.4000244
1320.702236	720.5999756
1321.240066	725.4000244
1321.777839	724.2000122
1322.315557	727.2000122
1322.853219	723.5999756
1323.390826	724.4000244
1323.928376	726.5999756
1324.465871	722.5999756
1325.003309	725.7999878
1325.540692	723.4000244
1326.07802	726.5999756
1326.615291	726.7999878
1327.152506	727.4000244
1327.689666	723.2000122
1328.22677	723.0
1328.763818	725.7999878
1329.300811	723.4000244
1329.837747	725.0
1330.374628	724.4000244
1330.911453	728.7999878
1331.448222	721.5999756
1331.984936	728.2000122
1332.521594	721.0
1333.058196	722.0
1333.594742	723.0
1334.131232	728.2000122
1334.667667	734.2000122
1335.204046	724.7999878
1335.740369	725.5999756
1336.276637	727.5999756
1336.812848	726.0
1337.349004	727.7999878
1337.885105	729.0
1338.421149	725.2000122
1338.957138	726.5999756
1339.493071	727.0
1340.028949	725.4000244
1340.56477	726.4000244
1341.100536	722.0
1341.636246	725.4000244
1342.171901	722.5999756
1342.7075	725.5999756
1343.243043	727.5999756
1343.77853	730.0
1344.313962	725.5999756
1344.849338	727.4000244
1345.384659	728.7999878
1345.919923	723.2000122
1346.455133	725.7999878
1346.990286	724.4000244
1347.525384	728.2000122
1348.060426	723.5999756
1348.595412	728.2000122
1349.130343	724.2000122
1349.665218	722.4000244
1350.200037	729.4000244
1350.734801	726.0
1351.269509	725.2000122
1351.804162	724.5999756
1352.338758	726.7999878
1352.8733	727.2000122
1353.407785	729.2000122
1353.942215	723.5999756
1354.476589	721.2000122
1355.010908	726.0
1355.545171	729.4000244
1356.079379	727.4000244
1356.61353	725.2000122
1357.147627	725.0
1357.681667	733.0
1358.215652	724.0
1358.749582	725.7999878
1359.283456	727.7999878
1359.817274	721.0
1360.351037	725.7999878
1360.884744	727.5999756
1361.418395	729.0
1361.951991	724.0
1362.485531	728.5999756
1363.019016	722.5999756
1363.552445	723.5999756
1364.085819	724.2000122
1364.619137	726.0
1365.1524	728.2000122
1365.685607	725.4000244
1366.218758	728.5999756
1366.751854	724.0
1367.284894	724.5999756
1367.817879	733.0
1368.350808	726.4000244
1368.883682	721.7999878
1369.4165	723.2000122
1369.949263	723.5999756
1370.48197	727.0
1371.014622	724.0
1371.547218	723.7999878
1372.079758	725.0
1372.612244	722.0
1373.144673	723.4000244
1373.677047	728.7999878
1374.209366	725.2000122
1374.741629	722.4000244
1375.273836	727.0
1375.805989	726.2000122
1376.338085	723.7999878
1376.870126	723.4000244
1377.402112	726.7999878
1377.934042	725.2000122
1378.465917	726.5999756
1378.997736	720.0
1379.5295	724.2000122
1380.061208	723.0
1380.592861	721.5999756
1381.124459	722.4000244
1381.656	727.2000122
1382.187487	724.2000122
1382.718918	730.0
1383.250294	726.2000122
1383.781614	722.2000122
1384.312879	725.5999756
1384.844088	727.5999756
1385.375242	724.4000244
1385.90634	726.0
1386.437383	725.2000122
1386.968371	725.5999756
1387.499303	731.0
1388.03018	780.2000122
1388.561001	946.5999756
1389.091767	844.5999756
1389.622478	748.0
1390.153133	730.5999756
1390.683733	726.0
1391.214277	724.0
1391.744766	723.4000244
1392.2752	723.0
1392.805578	727.4000244
1393.335901	720.2000122
1393.866168	726.4000244
1394.396381	726.2000122
1394.926537	721.7999878
1395.456639	726.7999878
1395.986685	725.5999756
1396.516675	724.2000122
1397.046611	726.4000244
1397.576491	725.2000122
1398.106315	721.0
1398.636084	724.5999756
1399.165798	723.5999756
1399.695457	724.7999878
1400.22506	726.0
1400.754608	722.5999756
1401.284101	722.5999756
1401.813538	727.4000244
1402.34292	724.5999756
1402.872247	730.2000122
1403.401518	723.5999756
1403.930734	721.2000122
1404.459895	721.4000244
1404.989	724.2000122
1405.51805	724.5999756
1406.047045	725.7999878
1406.575984	722.2000122
1407.104869	723.0
1407.633697	720.0
1408.162471	729.5999756
1408.691189	726.2000122
1409.219852	734.5999756
1409.74846	740.5999756
1410.277013	744.2000122
1410.80551	729.5999756
1411.333952	730.0
1411.862339	721.5999756
1412.39067	722.4000244
1412.918946	724.7999878
1413.447167	724.5999756
1413.975333	724.7999878
1414.503444	726.2000122
1415.031499	724.0
1415.559499	735.2000122
1416.087444	723.2000122
1416.615333	725.4000244
1417.143167	727.7999878
1417.670947	732.5999756
1418.19867	722.5999756
1418.726339	727.0
1419.253952	726.4000244
1419.781511	724.4000244
1420.309014	733.2000122
1420.836461	727.0
1421.363854	724.7999878
1421.891191	726.5999756
1422.418474	720.5999756
1422.945701	727.4000244
1423.472872	723.2000122
1423.999989	718.7999878
1424.52705	726.5999756
1425.054057	726.5999756
1425.581008	725.4000244
1426.107904	728.4000244
1426.634745	725.7999878
1427.16153	724.4000244
1427.688261	722.7999878
1428.214936	725.5999756
1428.741556	725.5999756
1429.268121	726.0
1429.794631	725.7999878
1430.321085	724.5999756
1430.847485	726.7999878
1431.373829	728.2000122
1431.900118	726.7999878
1432.426353	725.7999878
1432.952532	724.5999756
1433.478655	726.2000122
1434.004724	723.7999878
1434.530738	723.4000244
1435.056696	728.7999878
1435.5826	729.5999756
1436.108448	727.4000244
1436.634241	723.4000244
1437.159979	722.7999878
1437.685662	724.0
1438.21129	725.0
1438.736863	726.4000244
1439.262381	725.0
1439.787843	724.4000244
1440.313251	719.7999878
1440.838603	728.7999878
1441.3639	721.2000122
1441.889143	723.0
1442.41433	724.7999878
1442.939462	726.5999756
1443.464539	724.4000244
1443.989561	727.2000122
1444.514528	728.0
1445.03944	728.7999878
1445.564297	728.7999878
1446.089099	721.0
1446.613846	723.7999878
1447.138537	725.0
1447.663174	723.2000122
1448.187756	720.5999756
1448.712282	726.7999878
1449.236754	729.0
1449.761171	724.7999878
1450.285532	723.5999756
1450.809839	722.7999878
1451.33409	727.7999878
1451.858287	721.0
1452.382428	721.4000244
1452.906515	726.5999756
1453.430546	722.5999756
1453.954523	725.2000122
1454.478444	721.2000122
1455.002311	726.7999878
1455.526123	724.4000244
1456.049879	726.5999756
1456.573581	723.5999756
1457.097227	724.5999756
1457.620819	724.7999878
1458.144356	724.7999878
1458.667837	723.2000122
1459.191264	724.5999756
1459.714636	727.2000122
1460.237952	724.2000122
1460.761214	724.5999756
1461.284421	726.5999756
1461.807573	723.5999756
1462.33067	725.0
1462.853712	729.2000122
1463.376699	727.0
1463.899632	725.4000244
1464.422509	724.7999878
1464.945331	725.0
1465.468099	723.7999878
1465.990811	722.0
1466.513469	720.2000122
1467.036071	722.7999878
1467.558619	723.5999756
1468.081112	725.5999756
1468.60355	728.7999878
1469.125933	724.5999756
1469.648261	727.5999756
1470.170534	719.7999878
1470.692752	726.4000244
1471.214916	725.0
1471.737024	716.7999878
1472.259078	726.4000244
1472.781077	728.5999756
1473.303021	723.0
1473.82491	726.5999756
1474.346744	726.2000122
1474.868523	725.0
1475.390248	722.7999878
1475.911917	723.2000122
1476.433532	727.2000122
1476.955092	725.4000244
1477.476597	722.5999756
1477.998047	723.4000244
1478.519442	722.4000244
1479.040783	728.4000244
1479.562068	721.0
1480.083299	723.5999756
1480.604475	727.7999878
1481.125596	722.0
1481.646663	723.7999878
1482.167674	723.4000244
1482.688631	724.4000244
1483.209533	724.2000122
1483.73038	723.7999878
1484.251172	720.7999878
1484.771909	723.4000244
1485.292592	729.2000122
1485.81322	722.2000122
1486.333793	727.2000122
1486.854311	726.0
1487.374775	723.0
1487.895183	720.5999756
1488.415537	722.5999756
1488.935836	721.0
1489.456081	724.4000244
1489.97627	728.5999756
1490.496405	724.0
1491.016485	727.4000244
1491.536511	725.7999878
1492.056481	723.5999756
1492.576397	723.4000244
1493.096258	724.0
1493.616064	722.5999756
1494.135816	727.5999756
1494.655513	724.0
1495.175155	724.0
1495.694742	722.5999756
1496.214274	724.4000244
1496.733752	720.5999756
1497.253175	721.4000244
1497.772544	723.4000244
1498.291858	722.0
1498.811116	723.0
1499.330321	727.7999878
1499.84947	730.4000244
1500.368565	722.0
1500.887605	721.2000122
1501.406591	726.2000122
1501.925521	720.4000244
1502.444397	725.4000244
1502.963219	726.4000244
1503.481985	721.4000244
1504.000697	724.2000122
1504.519355	723.7999878
1505.037957	725.0
1505.556505	723.4000244
1506.074999	726.4000244
1506.593437	723.7999878
1507.111821	724.5999756
1507.63015	723.0
1508.148425	727.4000244
1508.666645	717.7999878
1509.18481	722.4000244
1509.702921	724.4000244
1510.220977	724.0
1510.738979	732.2000122
1511.256925	727.5999756
1511.774817	726.7999878
1512.292655	725.4000244
1512.810438	726.5999756
1513.328166	724.5999756
1513.84584	725.0
1514.363459	723.2000122
1514.881023	727.0
1515.398533	723.4000244
1515.915988	723.0
1516.433389	726.4000244
1516.950734	722.2000122
1517.468026	728.2000122
1517.985263	724.4000244
1518.502445	723.7999878
1519.019572	721.5999756
1519.536645	721.5999756
1520.053664	726.0
1520.570628	723.2000122
1521.087537	724.0
1521.604392	725.7999878
1522.121192	722.5999756
1522.637937	728.4000244
1523.154628	723.7999878
1523.671265	725.2000122
1524.187847	718.7999878
1524.704374	721.2000122
1525.220847	728.0
1525.737265	728.2000122
1526.253629	722.0
1526.769938	727.2000122
1527.286192	725.0
1527.802392	726.2000122
1528.318538	724.0
1528.834629	721.5999756
1529.350666	722.0
1529.866648	728.0
1530.382575	726.5999756
1530.898448	721.4000244
1531.414266	722.5999756
1531.93003	724.7999878
1532.44574	725.2000122
1532.961395	723.7999878
1533.476995	724.5999756
1533.992541	725.5999756
1534.508033	728.7999878
1535.02347	727.0
1535.538852	721.7999878
1536.05418	725.0
1536.569454	723.0
1537.084673	717.2000122
1537.599837	724.2000122
1538.114947	727.5999756
1538.630003	723.5999756
1539.145004	729.0
1539.659951	724.2000122
1540.174843	726.4000244
1540.689681	722.5999756
1541.204465	726.4000244
1541.719194	724.4000244
1542.233868	724.7999878
1542.748488	722.2000122
1543.263054	725.2000122
1543.777565	719.7999878
1544.292022	726.0
1544.806424	720.2000122
1545.320772	726.4000244
1545.835066	722.0
1546.349305	722.0
1546.863489	724.7999878
1547.37762	729.4000244
1547.891696	727.7999878
1548.405717	725.5999756
1548.919684	722.7999878
1549.433597	722.5999756
1549.947455	723.7999878
1550.461259	723.4000244
1550.975009	726.2000122
1551.488704	726.2000122
1552.002345	727.2000122
1552.515931	723.2000122
1553.029463	724.5999756
1553.542941	723.4000244
1554.056364	722.2000122
1554.569733	727.5999756
1555.083048	722.5999756
1555.596308	730.2000122
1556.109514	726.2000122
1556.622665	725.4000244
1557.135762	726.2000122
1557.648805	725.7999878
1558.161794	723.0
1558.674728	719.4000244
1559.187608	722.4000244
1559.700433	724.7999878
1560.213205	722.2000122
1560.725921	727.0
1561.238584	724.4000244
1561.751192	726.5999756
1562.263746	725.7999878
1562.776246	725.7999878
1563.288691	724.5999756
1563.801082	726.7999878
1564.313419	725.4000244
1564.825701	725.4000244
1565.337929	728.0
1565.850103	726.4000244
1566.362223	727.4000244
1566.874288	728.4000244
1567.386299	724.4000244
1567.898256	723.2000122
1568.410158	725.2000122
1568.922007	726.4000244
1569.4338	723.0
1569.94554	725.0
1570.457226	719.7999878
1570.968857	730.0
1571.480434	725.0
1571.991956	727.0
1572.503425	724.5999756
1573.014839	719.5999756
1573.526199	723.2000122
1574.037505	724.7999878
1574.548756	726.7999878
1575.059953	722.2000122
1575.571096	719.7999878
1576.082185	722.0
1576.59322	724.4000244
1577.1042	728.7999878
1577.615126	728.0
1578.125998	724.5999756
1578.636816	723.2000122
1579.14758	729.7999878
1579.658289	724.5999756
1580.168944	721.7999878
1580.679545	721.2000122
1581.190092	725.5999756
1581.700585	725.2000122
1582.211023	718.5999756
1582.721407	730.0
1583.231737	726.0
1583.742013	726.4000244
1584.252235	731.0
1584.762403	722.4000244
1585.272516	724.7999878
1585.782575	723.5999756
1586.292581	721.5999756
1586.802532	728.4000244
1587.312428	724.5999756
1587.822271	723.5999756
1588.33206	721.4000244
1588.841794	724.7999878
1589.351474	723.2000122
1589.8611	727.7999878
1590.370672	728.4000244
1590.88019	721.7999878
1591.389654	719.7999878
1591.899064	725.2000122
1592.408419	723.4000244
