1043.112314	1529.199951
1043.678594	1546.199951
1044.244816	1529.800049
1044.810979	1519.0
1045.377084	1516.0
1045.943132	1536.0
1046.509121	1537.0
1047.075052	1505.599976
1047.640924	1518.599976
1048.206739	1519.599976
1048.772495	1518.199951
1049.338193	1517.0
1049.903833	1516.400024
1050.469415	1518.0
1051.034939	1515.0
1051.600404	1526.0
1052.165811	1516.599976
1052.731161	1526.800049
1053.296452	1520.199951
1053.861685	1507.400024
1054.426859	1499.599976
1054.991976	1518.0
1055.557035	1510.800049
1056.122035	1512.199951
1056.686978	1507.199951
1057.251862	1495.800049
1057.816688	1505.400024
1058.381456	1501.0
1058.946166	1503.0
1059.510818	1495.400024
1060.075411	1498.800049
1060.639947	1505.800049
1061.204425	1504.400024
1061.768844	1495.599976
1062.333206	1506.599976
1062.897509	1496.199951
1063.461754	1501.400024
1064.025942	1499.599976
1064.590071	1486.0
1065.154142	1510.800049
1065.718155	1499.800049
1066.28211	1515.599976
1066.846007	1482.400024
1067.409846	1499.0
1067.973627	1493.800049
1068.53735	1499.800049
1069.101014	1502.0
1069.664621	1501.199951
1070.22817	1498.800049
1070.791661	1492.400024
1071.355094	1496.400024
1071.918469	1484.400024
1072.481785	1492.199951
1073.045044	1494.599976
1073.608245	1491.199951
1074.171388	1501.0
1074.734473	1489.0
1075.297499	1482.199951
1075.860468	1479.400024
1076.423379	1486.400024
1076.986232	1479.599976
1077.549027	1484.800049
1078.111764	1469.0
1078.674443	1488.199951
1079.237064	1471.400024
1079.799627	1482.400024
1080.362132	1470.199951
1080.92458	1478.0
1081.486969	1477.599976
1082.0493	1467.0
1082.611574	1473.400024
1083.173789	1475.800049
1083.735947	1470.800049
1084.298047	1463.199951
1084.860088	1457.0
1085.422072	1477.199951
1085.983998	1475.800049
1086.545866	1464.800049
1087.107677	1472.800049
1087.669429	1470.199951
1088.231123	1457.0
1088.79276	1463.199951
1089.354338	1455.0
1089.915859	1461.800049
1090.477322	1454.199951
1091.038727	1461.0
1091.600074	1460.199951
1092.161363	1462.599976
1092.722595	1464.599976
1093.283768	1462.0
1093.844884	1458.199951
1094.405942	1470.0
1094.966942	1459.599976
1095.527884	1457.199951
1096.088768	1445.400024
1096.649595	1446.599976
1097.210364	1440.599976
1097.771074	1446.599976
1098.331728	1440.0
1098.892323	1439.800049
1099.45286	1448.0
1100.01334	1449.800049
1100.573762	1444.400024
1101.134126	1449.800049
1101.694432	1445.199951
1102.25468	1426.599976
1102.814871	1465.0
1103.375004	1442.800049
1103.935079	1442.0
1104.495096	1428.800049
1105.055056	1422.800049
1105.614958	1435.800049
1106.174802	1432.0
1106.734588	1428.199951
1107.294317	1429.599976
1107.853987	1428.400024
1108.4136	1414.199951
1108.973156	1425.800049
1109.532653	1428.599976
1110.092093	1425.0
1110.651475	1417.199951
1111.2108	1418.199951
1111.770066	1430.400024
1112.329275	1423.599976
1112.888426	1435.0
1113.44752	1427.199951
1114.006556	1425.400024
1114.565534	1422.0
1115.124454	1420.599976
1115.683317	1430.599976
1116.242122	1438.599976
1116.800869	1420.400024
1117.359559	1428.400024
1117.918191	1430.0
1118.476765	1416.599976
1119.035282	1419.400024
1119.593741	1411.599976
1120.152142	1417.199951
1120.710486	1404.400024
1121.268772	1422.199951
1121.827	1414.400024
1122.385171	1418.800049
1122.943284	1420.400024
1123.50134	1421.800049
1124.059337	1412.0
1124.617277	1398.0
1125.17516	1408.800049
1125.732985	1420.0
1126.290752	1421.800049
1126.848462	1403.0
1127.406114	1412.0
1127.963709	1412.800049
1128.521245	1415.199951
1129.078725	1410.800049
1129.636146	1419.0
1130.193511	1407.400024
1130.750817	1404.400024
1131.308066	1405.800049
1131.865257	1405.400024
1132.422391	1412.0
1132.979467	1398.199951
1133.536486	1400.599976
1134.093447	1420.599976
1134.650351	1408.199951
1135.207197	1413.0
1135.763985	1403.800049
1136.320716	1418.599976
1136.877389	1397.599976
1137.434005	1407.400024
1137.990563	1418.800049
1138.547064	1400.800049
1139.103507	1403.0
1139.659893	1400.400024
1140.216221	1421.800049
1140.772492	1400.800049
1141.328705	1398.800049
1141.884861	1402.599976
1142.440959	1400.199951
1142.997	1402.0
1143.552983	1398.0
1144.108908	1398.400024
1144.664777	1411.0
1145.220587	1394.0
1145.776341	1414.199951
1146.332036	1397.199951
1146.887675	1413.0
1147.443256	1393.400024
1147.998779	1404.0
1148.554245	1414.199951
1149.109653	1401.199951
1149.665004	1405.599976
1150.220298	1403.0
1150.775534	1386.400024
1151.330713	1404.800049
1151.885834	1390.400024
1152.440898	1407.0
1152.995904	1393.400024
1153.550853	1404.199951
1154.105745	1396.800049
1154.660579	1400.199951
1155.215356	1407.800049
1155.770075	1396.199951
1156.324737	1385.599976
1156.879341	1393.199951
1157.433889	1395.599976
1157.988378	1400.599976
1158.542811	1392.599976
1159.097186	1387.800049
1159.651503	1392.400024
1160.205764	1403.400024
1160.759966	1393.0
1161.314112	1394.800049
1161.8682	1387.0
1162.422231	1385.800049
1162.976204	1397.199951
1163.53012	1394.0
1164.083979	1412.199951
1164.637781	1402.0
1165.191525	1415.400024
1165.745211	1381.0
1166.298841	1393.400024
1166.852413	1380.0
1167.405928	1402.400024
1167.959385	1400.199951
1168.512785	1396.199951
1169.066128	1380.0
1169.619413	1390.400024
1170.172642	1379.400024
1170.725813	1389.599976
1171.278926	1382.599976
1171.831983	1386.800049
1172.384982	1393.400024
1172.937923	1372.0
1173.490808	1375.199951
1174.043635	1389.400024
1174.596405	1388.599976
1175.149118	1391.599976
1175.701773	1389.800049
1176.254371	1376.199951
1176.806912	1377.199951
1177.359396	1384.0
1177.911822	1381.800049
1178.464192	1399.400024
1179.016503	1388.599976
1179.568758	1379.599976
1180.120956	1380.400024
1180.673096	1379.199951
1181.225179	1383.800049
1181.777205	1380.199951
1182.329173	1363.400024
1182.881085	1377.800049
1183.432939	1386.400024
1183.984736	1375.0
1184.536476	1372.800049
1185.088158	1388.599976
1185.639784	1372.800049
1186.191352	1375.599976
1186.742863	1383.800049
1187.294317	1381.400024
1187.845713	1366.599976
1188.397053	1374.199951
1188.948335	1366.0
1189.499561	1372.800049
1190.050729	1370.800049
1190.601839	1381.0
1191.152893	1383.800049
1191.70389	1369.400024
1192.254829	1363.199951
1192.805712	1369.199951
1193.356537	1390.599976
1193.907305	1367.800049
1194.458016	1375.0
1195.00867	1354.199951
1195.559266	1353.199951
1196.109806	1364.199951
1196.660288	1368.0
1197.210714	1354.199951
1197.761082	1366.400024
1198.311393	1363.0
1198.861647	1380.599976
1199.411844	1367.199951
1199.961984	1358.199951
1200.512067	1358.800049
1201.062092	1372.199951
1201.612061	1363.0
1202.161973	1366.400024
1202.711827	1361.800049
1203.261625	1365.199951
1203.811365	1355.400024
1204.361048	1354.599976
1204.910675	1351.199951
1205.460244	1368.0
1206.009756	1362.199951
1206.559211	1362.400024
1207.10861	1363.599976
1207.657951	1350.199951
1208.207235	1345.599976
1208.756462	1346.400024
1209.305632	1350.800049
1209.854745	1339.199951
1210.403801	1365.800049
1210.9528	1355.0
1211.501742	1333.400024
1212.050627	1345.199951
1212.599455	1368.599976
1213.148226	1343.199951
1213.69694	1359.199951
1214.245597	1353.800049
1214.794197	1355.400024
1215.34274	1363.400024
1215.891227	1341.199951
1216.439656	1346.199951
1216.988028	1355.0
1217.536343	1366.400024
1218.084602	1355.599976
1218.632803	1350.199951
1219.180947	1364.0
1219.729035	1365.599976
1220.277065	1333.400024
1220.825039	1335.400024
1221.372956	1351.0
1221.920815	1357.599976
1222.468618	1346.400024
1223.016364	1355.400024
1223.564053	1347.800049
1224.111685	1344.800049
1224.65926	1348.599976
1225.206779	1363.0
1225.75424	1324.0
1226.301645	1346.199951
1226.848992	1336.599976
1227.396283	1332.0
1227.943517	1328.199951
1228.490694	1343.400024
1229.037814	1344.199951
1229.584877	1338.800049
1230.131883	1338.800049
1230.678833	1334.400024
1231.225725	1329.800049
1231.772561	1341.0
1232.31934	1340.599976
1232.866062	1330.199951
1233.412727	1345.800049
1233.959336	1320.400024
1234.505887	1335.800049
1235.052382	1323.599976
1235.59882	1339.0
1236.145201	1345.199951
1236.691525	1341.199951
1237.237793	1330.199951
1237.784003	1340.800049
1238.330157	1329.400024
1238.876254	1331.599976
1239.422295	1325.800049
1239.968278	1333.400024
1240.514205	1322.400024
1241.060074	1339.400024
1241.605888	1330.800049
1242.151644	1328.400024
1242.697343	1328.400024
1243.242986	1328.0
1243.788572	1330.599976
1244.334101	1313.800049
1244.879574	1319.400024
1245.42499	1332.400024
1245.970349	1326.599976
1246.515651	1324.199951
1247.060896	1326.0
1247.606085	1313.400024
1248.151217	1327.800049
1248.696292	1321.599976
1249.241311	1327.0
1249.786273	1317.599976
1250.331178	1316.800049
1250.876026	1311.800049
1251.420818	1325.599976
1251.965553	1315.0
1252.510231	1325.0
1253.054853	1323.400024
1253.599418	1313.0
1254.143926	1310.199951
1254.688377	1316.400024
1255.232772	1316.199951
1255.77711	1298.0
1256.321392	1315.400024
1256.865617	1321.599976
1257.409785	1310.599976
1257.953896	1318.0
1258.497951	1326.0
1259.041949	1319.599976
1259.585891	1321.599976
1260.129776	1318.0
1260.673604	1324.800049
1261.217375	1319.800049
1261.76109	1304.400024
1262.304749	1318.599976
1262.84835	1317.800049
1263.391896	1304.199951
1263.935384	1300.199951
1264.478816	1322.800049
1265.022191	1329.400024
1265.56551	1326.599976
1266.108772	1320.599976
1266.651977	1299.199951
1267.195126	1305.800049
1267.738218	1308.599976
1268.281254	1308.599976
1268.824233	1308.599976
1269.367155	1302.599976
1269.910021	1305.599976
1270.452831	1305.800049
1270.995583	1315.199951
1271.53828	1311.199951
1272.080919	1308.0
1272.623502	1300.400024
1273.166029	1288.800049
1273.708499	1299.199951
1274.250912	1308.599976
1274.793269	1301.800049
1275.33557	1297.199951
1275.877814	1306.800049
1276.420001	1309.599976
1276.962132	1305.199951
1277.504206	1296.400024
1278.046224	1291.199951
1278.588185	1311.599976
1279.13009	1300.800049
1279.671938	1291.800049
1280.21373	1303.800049
1280.755465	1301.599976
1281.297144	1303.599976
1281.838766	1292.0
1282.380332	1301.599976
1282.921841	1295.599976
1283.463294	1295.0
1284.004691	1313.599976
1284.546031	1385.800049
1285.087314	1571.400024
1285.628541	1572.800049
1286.169711	1360.400024
1286.710826	1312.400024
1287.251883	1300.400024
1287.792884	1288.199951
1288.333829	1288.599976
1288.874717	1293.599976
1289.415549	1288.0
1289.956325	1283.0
1290.497044	1282.400024
1291.037706	1286.800049
1291.578313	1282.599976
1292.118862	1287.0
1292.659356	1269.199951
1293.199793	1287.0
1293.740173	1283.599976
1294.280498	1273.400024
1294.820765	1275.800049
1295.360977	1275.199951
1295.901132	1283.400024
1296.44123	1280.400024
1296.981273	1269.800049
1297.521259	1277.0
1298.061188	1271.199951
1298.601061	1286.400024
1299.140878	1275.0
1299.680639	1250.599976
1300.220343	1278.0
1300.75999	1275.800049
1301.299582	1255.199951
1301.839117	1258.800049
1302.378596	1275.800049
1302.918018	1279.800049
1303.457384	1277.199951
1303.996694	1274.599976
1304.535947	1263.599976
1305.075145	1268.800049
1305.614285	1256.599976
1306.15337	1274.199951
1306.692398	1276.599976
1307.23137	1261.0
1307.770286	1264.800049
1308.309145	1271.199951
1308.847948	1271.800049
1309.386695	1271.199951
1309.925385	1261.800049
1310.464019	1287.599976
1311.002597	1269.0
1311.541119	1257.800049
1312.079584	1257.199951
1312.617993	1264.0
1313.156346	1271.199951
1313.694643	1259.599976
1314.232883	1254.199951
1314.771067	1253.400024
1315.309195	1262.400024
1315.847267	1251.599976
1316.385282	1257.400024
1316.923241	1252.800049
1317.461144	1259.199951
1317.998991	1263.800049
1318.536782	1253.599976
1319.074516	1251.199951
1319.612194	1265.199951
1320.149816	1273.800049
1320.687382	1248.400024
1321.224891	1255.599976
1321.762344	1260.400024
1322.299742	1251.0
1322.837083	1255.199951
1323.374367	1257.400024
1323.911596	1251.400024
1324.448768	1262.0
1324.985885	1243.599976
1325.522945	1249.400024
1326.059949	1244.599976
1326.596896	1241.400024
1327.133788	1248.599976
1327.670623	1260.800049
1328.207403	1241.0
1328.744126	1247.599976
1329.280793	1246.199951
1329.817404	1251.800049
1330.353959	1242.599976
1330.890457	1254.599976
1331.4269	1242.0
1331.963286	1255.400024
1332.499617	1252.0
1333.035891	1259.199951
1333.572109	1228.800049
1334.108271	1234.0
1334.644377	1248.599976
1335.180427	1236.800049
1335.71642	1240.800049
1336.252358	1255.800049
1336.78824	1242.800049
1337.324065	1237.400024
1337.859834	1234.0
1338.395548	1240.199951
1338.931205	1232.800049
1339.466806	1226.800049
1340.002351	1225.0
1340.537841	1233.199951
1341.073274	1232.800049
1341.608651	1219.199951
1342.143972	1222.599976
1342.679236	1237.599976
1343.214445	1227.800049
1343.749598	1228.800049
1344.284695	1242.800049
1344.819736	1232.0
1345.354721	1218.199951
1345.88965	1240.400024
1346.424522	1217.599976
1346.959339	1221.400024
1347.4941	1217.400024
1348.028805	1227.800049
1348.563453	1219.800049
1349.098046	1225.199951
1349.632583	1229.800049
1350.167064	1225.400024
1350.701489	1244.599976
1351.235858	1228.800049
1351.770171	1244.599976
1352.304428	1226.800049
1352.838629	1232.800049
1353.372774	1227.599976
1353.906863	1215.199951
1354.440896	1222.0
1354.974873	1219.599976
1355.508794	1206.0
1356.04266	1215.0
1356.576469	1220.0
1357.110222	1223.0
1357.64392	1224.400024
1358.177561	1214.599976
1358.711147	1223.400024
1359.244677	1221.400024
1359.778151	1213.800049
1360.311569	1216.400024
1360.844931	1223.800049
1361.378237	1214.599976
1361.911487	1220.199951
1362.444682	1215.599976
1362.97782	1223.199951
1363.510903	1215.199951
1364.043929	1218.599976
1364.5769	1209.599976
1365.109815	1227.599976
1365.642674	1225.400024
1366.175478	1212.0
1366.708225	1220.400024
1367.240917	1204.0
1367.773552	1216.400024
1368.306132	1205.199951
1368.838656	1214.599976
1369.371124	1211.800049
1369.903537	1204.800049
1370.435893	1216.0
1370.968194	1213.800049
1371.500439	1193.599976
1372.032628	1195.0
1372.564761	1218.0
1373.096838	1216.199951
1373.62886	1200.0
1374.160826	1213.400024
1374.692736	1209.400024
1375.22459	1205.199951
1375.756388	1207.199951
1376.288131	1196.400024
1376.819818	1215.400024
1377.351449	1207.400024
1377.883024	1196.400024
1378.414544	1205.800049
1378.946008	1199.199951
1379.477416	1192.0
1380.008768	1204.0
1380.540064	1198.599976
1381.071305	1196.800049
1381.60249	1195.400024
1382.133619	1194.800049
1382.664693	1205.800049
1383.195711	1212.400024
1383.726673	1199.599976
1384.257579	1190.400024
1384.78843	1190.199951
1385.319224	1206.800049
1385.849964	1210.800049
1386.380647	1211.400024
1386.911275	1220.400024
1387.441847	1240.0
1387.972363	1419.800049
1388.502824	1788.599976
1389.033229	1407.0
1389.563578	1237.800049
1390.093872	1208.199951
1390.62411	1196.400024
1391.154292	1189.800049
1391.684419	1181.400024
1392.214489	1202.199951
1392.744505	1190.800049
1393.274464	1187.400024
1393.804368	1190.599976
1394.334216	1196.400024
1394.864009	1185.199951
1395.393746	1182.0
1395.923427	1185.800049
1396.453053	1207.0
1396.982623	1175.400024
1397.512138	1194.199951
1398.041597	1187.599976
1398.571	1197.800049
1399.100347	1190.0
1399.629639	1178.199951
1400.158876	1194.800049
1400.688056	1187.599976
1401.217182	1182.800049
1401.746251	1193.599976
1402.275265	1192.400024
1402.804224	1174.0
1403.333126	1191.0
1403.861974	1177.400024
1404.390765	1188.599976
1404.919501	1170.800049
1405.448182	1189.0
1405.976807	1175.599976
1406.505376	1176.0
1407.03389	1186.400024
1407.562349	1180.199951
1408.090751	1177.599976
1408.619098	1195.400024
1409.14739	1186.800049
1409.675626	1214.599976
1410.203807	1207.800049
1410.731932	1182.800049
1411.260001	1180.800049
1411.788015	1173.0
1412.315974	1187.0
1412.843877	1181.400024
1413.371725	1172.0
1413.899516	1176.599976
1414.427253	1178.199951
1414.954934	1191.199951
1415.482559	1189.599976
1416.010129	1173.400024
1416.537644	1178.800049
1417.065103	1161.199951
1417.592507	1179.400024
1418.119855	1183.199951
1418.647147	1172.199951
1419.174385	1173.199951
1419.701566	1169.0
1420.228692	1169.599976
1420.755763	1173.0
1421.282779	1170.400024
1421.809739	1171.800049
1422.336643	1166.599976
1422.863492	1164.599976
1423.390286	1177.199951
1423.917024	1159.400024
1424.443707	1169.599976
1424.970334	1179.800049
1425.496906	1170.599976
1426.023422	1175.0
1426.549883	1173.400024
1427.076289	1160.0
1427.602639	1165.800049
1428.128934	1162.199951
1428.655174	1171.0
1429.181358	1159.400024
1429.707486	1147.400024
1430.23356	1169.800049
1430.759578	1162.800049
1431.28554	1148.599976
1431.811448	1164.800049
1432.337299	1163.800049
1432.863096	1166.0
1433.388837	1164.199951
1433.914523	1158.0
1434.440153	1160.800049
1434.965728	1160.199951
1435.491248	1163.199951
1436.016712	1160.199951
1436.542122	1167.0
1437.067475	1150.400024
1437.592774	1149.800049
1438.118017	1149.800049
1438.643205	1154.599976
1439.168337	1154.400024
1439.693414	1154.0
1440.218436	1161.800049
1440.743403	1156.199951
1441.268314	1157.800049
1441.79317	1143.800049
1442.31797	1150.0
1442.842716	1160.599976
1443.367406	1162.0
1443.892041	1158.599976
1444.41662	1166.800049
1444.941145	1153.0
1445.465614	1145.800049
1445.990027	1151.599976
1446.514386	1151.400024
1447.038689	1146.400024
1447.562937	1139.199951
1448.08713	1163.800049
1448.611267	1148.199951
1449.13535	1147.400024
1449.659377	1155.599976
1450.183348	1151.0
1450.707265	1140.599976
1451.231126	1152.599976
1451.754932	1159.800049
1452.278683	1143.400024
1452.802379	1140.599976
1453.32602	1141.400024
1453.849605	1141.0
1454.373135	1145.599976
1454.89661	1139.199951
1455.42003	1140.0
1455.943394	1137.199951
1456.466703	1143.0
1456.989958	1135.199951
1457.513157	1134.400024
1458.0363	1155.599976
1458.559389	1148.599976
1459.082423	1135.0
1459.605401	1144.0
1460.128324	1132.199951
1460.651192	1142.199951
1461.174005	1148.0
1461.696763	1130.800049
1462.219465	1145.599976
1462.742113	1139.400024
1463.264705	1138.400024
1463.787242	1133.599976
1464.309724	1146.599976
1464.832151	1131.400024
1465.354523	1143.0
1465.87684	1130.800049
1466.399102	1122.800049
1466.921308	1136.199951
1467.443459	1139.400024
1467.965556	1129.199951
1468.487597	1135.0
1469.009583	1127.800049
1469.531514	1125.199951
1470.05339	1148.599976
1470.575211	1132.0
1471.096977	1118.599976
1471.618688	1130.400024
1472.140343	1125.599976
1472.661944	1129.199951
1473.18349	1141.800049
1473.70498	1128.400024
1474.226416	1125.400024
1474.747796	1131.400024
1475.269122	1118.599976
1475.790392	1128.0
1476.311607	1133.800049
1476.832768	1121.199951
1477.353873	1126.800049
1477.874923	1120.199951
1478.395918	1121.199951
1478.916859	1122.800049
1479.437744	1115.0
1479.958574	1121.199951
1480.479349	1113.0
1481.00007	1126.0
1481.520735	1111.199951
1482.041345	1116.400024
1482.5619	1122.599976
1483.082401	1116.400024
1483.602846	1122.599976
1484.123236	1119.400024
1484.643572	1106.800049
1485.163852	1128.400024
1485.684077	1120.400024
1486.204248	1127.199951
1486.724363	1119.800049
1487.244424	1114.400024
1487.76443	1120.199951
1488.28438	1121.800049
1488.804276	1119.0
1489.324117	1118.800049
1489.843903	1104.400024
1490.363634	1103.800049
1490.88331	1113.199951
1491.402931	1102.199951
1491.922497	1110.599976
1492.442008	1112.400024
1492.961465	1115.0
1493.480866	1099.800049
1494.000213	1114.800049
1494.519505	1116.800049
1495.038741	1105.199951
1495.557923	1113.0
1496.07705	1113.599976
1496.596122	1108.400024
1497.11514	1100.199951
1497.634102	1097.400024
1498.15301	1109.800049
1498.671862	1110.599976
1499.19066	1111.199951
1499.709403	1107.800049
1500.228091	1109.800049
1500.746725	1090.800049
1501.265303	1104.800049
1501.783827	1095.400024
1502.302296	1110.599976
1502.820709	1105.400024
1503.339069	1111.0
1503.857373	1102.800049
1504.375622	1097.0
1504.893817	1101.800049
1505.411957	1104.800049
1505.930042	1112.400024
1506.448072	1095.400024
1506.966048	1105.0
1507.483968	1099.800049
1508.001834	1093.800049
1508.519645	1102.800049
1509.037401	1101.199951
1509.555103	1111.0
1510.07275	1094.800049
1510.590342	1107.400024
1511.107879	1099.0
1511.625361	1099.599976
1512.142789	1097.599976
1512.660162	1099.199951
1513.17748	1095.0
1513.694743	1101.800049
1514.211952	1095.400024
1514.729106	1098.800049
1515.246205	1104.0
1515.76325	1095.199951
1516.280239	1105.800049
1516.797174	1099.0
1517.314055	1089.0
1517.83088	1097.0
1518.347651	1092.199951
1518.864367	1094.800049
1519.381029	1081.400024
1519.897635	1106.0
1520.414187	1085.599976
1520.930685	1093.400024
1521.447127	1101.599976
1521.963515	1088.0
1522.479849	1088.800049
1522.996127	1090.199951
1523.512351	1089.400024
1524.028521	1099.400024
1524.544635	1099.199951
1525.060695	1093.199951
1525.576701	1084.800049
1526.092651	1090.400024
1526.608547	1090.599976
1527.124389	1094.0
1527.640175	1096.400024
1528.155907	1091.800049
1528.671585	1090.199951
1529.187208	1090.599976
1529.702776	1100.199951
1530.218289	1100.800049
1530.733748	1086.199951
1531.249153	1091.599976
1531.764502	1078.800049
1532.279798	1094.0
1532.795038	1096.199951
1533.310224	1095.599976
1533.825355	1087.0
1534.340432	1089.0
1534.855454	1103.400024
1535.370422	1086.599976
1535.885335	1085.0
1536.400193	1072.400024
1536.914997	1086.400024
1537.429746	1090.199951
1537.944441	1099.199951
1538.459081	1087.400024
1538.973667	1093.0
1539.488198	1080.400024
1540.002674	1086.199951
1540.517096	1093.400024
1541.031464	1086.599976
1541.545777	1093.0
1542.060035	1078.400024
1542.574239	1087.0
1543.088388	1084.199951
1543.602483	1087.800049
1544.116523	1085.400024
1544.630509	1087.0
1545.14444	1093.400024
1545.658317	1094.0
1546.172139	1078.0
1546.685907	1090.400024
1547.19962	1087.599976
1547.713279	1085.0
1548.226883	1085.199951
1548.740433	1084.599976
1549.253929	1086.0
1549.76737	1079.400024
1550.280756	1086.0
1550.794088	1076.199951
1551.307365	1071.0
1551.820588	1084.599976
1552.333757	1083.599976
1552.846871	1080.199951
1553.359931	1088.199951
1553.872936	1087.599976
1554.385887	1089.800049
1554.898783	1088.0
1555.411625	1067.800049
1555.924413	1078.400024
1556.437146	1070.0
1556.949824	1085.800049
1557.462449	1073.599976
1557.975019	1082.0
1558.487534	1076.400024
1558.999995	1075.0
1559.512402	1081.599976
1560.024754	1076.199951
1560.537052	1082.599976
1561.049295	1081.800049
1561.561485	1085.400024
1562.073619	1074.0
1562.5857	1079.0
1563.097726	1070.599976
1563.609697	1079.400024
1564.121615	1077.400024
1564.633477	1069.599976
1565.145286	1080.800049
1565.65704	1066.800049
1566.16874	1079.599976
1566.680386	1075.199951
1567.191977	1083.599976
1567.703514	1088.199951
1568.214996	1078.599976
1568.726424	1077.199951
1569.237798	1065.0
1569.749118	1068.599976
1570.260383	1081.0
1570.771594	1070.400024
1571.28275	1078.800049
1571.793853	1088.400024
1572.304901	1075.199951
1572.815895	1072.599976
1573.326834	1071.199951
1573.837719	1078.0
1574.34855	1073.400024
1574.859327	1065.199951
1575.370049	1075.800049
1575.880717	1070.800049
1576.391331	1068.0
1576.90189	1069.599976
1577.412395	1061.599976
1577.922846	1068.599976
1578.433243	1074.599976
1578.943586	1069.800049
1579.453874	1063.800049
1579.964108	1068.400024
1580.474288	1061.599976
1580.984413	1066.800049
1581.494484	1072.199951
1582.004501	1061.800049
1582.514464	1062.0
1583.024373	1060.800049
1583.534227	1072.199951
1584.044028	1064.800049
1584.553774	1067.400024
1585.063465	1079.599976
1585.573103	1069.199951
1586.082687	1070.199951
1586.592216	1062.800049
1587.101691	1057.0
1587.611112	1060.199951
1588.120478	1068.400024
1588.629791	1067.0
1589.139049	1065.0
1589.648253	1053.800049
1590.157403	1055.0
1590.666499	1060.599976
1591.175541	1060.199951
1591.684529	1072.0
