1043.112314	2967.600098
1043.678594	2973.800049
1044.244816	2972.0
1044.810979	3004.199951
1045.377084	2978.800049
1045.943132	2961.199951
1046.509121	2945.199951
1047.075052	2961.800049
1047.640924	2965.199951
1048.206739	2979.800049
1048.772495	2974.399902
1049.338193	2958.199951
1049.903833	2955.199951
1050.469415	2965.199951
1051.034939	2943.199951
1051.600404	2952.0
1052.165811	2939.0
1052.731161	2965.600098
1053.296452	2940.399902
1053.861685	2942.800049
1054.426859	2953.0
1054.991976	2946.399902
1055.557035	2916.800049
1056.122035	2939.199951
1056.686978	2945.600098
1057.251862	2967.600098
1057.816688	2944.399902
1058.381456	2964.800049
1058.946166	2913.600098
1059.510818	2921.399902
1060.075411	2911.199951
1060.639947	2913.800049
1061.204425	2900.199951
1061.768844	2928.800049
1062.333206	2907.0
1062.897509	2920.600098
1063.461754	2912.0
1064.025942	2920.399902
1064.590071	2886.399902
1065.154142	2936.199951
1065.718155	2907.0
1066.28211	2930.399902
1066.846007	2903.199951
1067.409846	2895.199951
1067.973627	2899.0
1068.53735	2915.600098
1069.101014	2892.0
1069.664621	2868.800049
1070.22817	2894.199951
1070.791661	2908.800049
1071.355094	2896.399902
1071.918469	2905.600098
1072.481785	2888.199951
1073.045044	2894.800049
1073.608245	2874.399902
1074.171388	2890.399902
1074.734473	2858.600098
1075.297499	2860.800049
1075.860468	2873.199951
1076.423379	2884.800049
1076.986232	2865.600098
1077.549027	2856.0
1078.111764	2876.0
1078.674443	2891.0
1079.237064	2868.399902
1079.799627	2860.0
1080.362132	2874.0
1080.92458	2857.399902
1081.486969	2879.800049
1082.0493	2836.800049
1082.611574	2841.800049
1083.173789	2860.199951
1083.735947	2855.800049
1084.298047	2845.0
1084.860088	2861.800049
1085.422072	2851.399902
1085.983998	2827.0
1086.545866	2848.600098
1087.107677	2820.199951
1087.669429	2836.399902
1088.231123	2829.0
1088.79276	2828.600098
1089.354338	2822.399902
1089.915859	2836.399902
1090.477322	2815.199951
1091.038727	2815.399902
1091.600074	2800.600098
1092.161363	2797.800049
1092.722595	2819.600098
1093.283768	2815.600098
1093.844884	2796.0
1094.405942	2816.399902
1094.966942	2793.199951
1095.527884	2795.600098
1096.088768	2768.800049
1096.649595	2785.800049
1097.210364	2800.800049
1097.771074	2810.600098
1098.331728	2798.600098
1098.892323	2789.600098
1099.45286	2777.399902
1100.01334	2792.399902
1100.573762	2764.0
1101.134126	2788.399902
1101.694432	2783.399902
1102.25468	2766.399902
1102.814871	2772.600098
1103.375004	2775.600098
1103.935079	2768.0
1104.495096	2735.199951
1105.055056	2749.0
1105.614958	2745.600098
1106.174802	2764.399902
1106.734588	2732.399902
1107.294317	2743.800049
1107.853987	2725.800049
1108.4136	2730.800049
1108.973156	2740.800049
1109.532653	2723.800049
1110.092093	2741.399902
1110.651475	2740.800049
1111.2108	2736.600098
1111.770066	2708.199951
1112.329275	2725.800049
1112.888426	2711.399902
1113.44752	2737.600098
1114.006556	2739.199951
1114.565534	2734.600098
1115.124454	2722.399902
1115.683317	2743.0
1116.242122	2737.800049
1116.800869	2726.399902
1117.359559	2705.600098
1117.918191	2736.399902
1118.476765	2693.600098
1119.035282	2721.800049
1119.593741	2693.600098
1120.152142	2706.0
1120.710486	2690.199951
1121.268772	2706.600098
1121.827	2682.800049
1122.385171	2714.399902
1122.943284	2705.0
1123.50134	2713.800049
1124.059337	2694.800049
1124.617277	2682.800049
1125.17516	2707.600098
1125.732985	2675.800049
1126.290752	2704.800049
1126.848462	2688.600098
1127.406114	2671.399902
1127.963709	2686.800049
1128.521245	2690.600098
1129.078725	2678.0
1129.636146	2679.600098
1130.193511	2682.199951
1130.750817	2671.800049
1131.308066	2674.199951
1131.865257	2659.0
1132.422391	2699.199951
1132.979467	2693.399902
1133.536486	2670.800049
1134.093447	2667.0
1134.650351	2696.0
1135.207197	2705.0
1135.763985	2667.199951
1136.320716	2648.0
1136.877389	2663.199951
1137.434005	2679.800049
1137.990563	2669.0
1138.547064	2681.399902
1139.103507	2709.399902
1139.659893	2675.399902
1140.216221	2679.600098
1140.772492	2662.399902
1141.328705	2675.399902
1141.884861	2678.0
1142.440959	2665.800049
1142.997	2652.0
1143.552983	2658.600098
1144.108908	2657.0
1144.664777	2626.399902
1145.220587	2661.0
1145.776341	2669.399902
1146.332036	2653.0
1146.887675	2664.0
1147.443256	2649.399902
1147.998779	2646.0
1148.554245	2643.0
1149.109653	2652.199951
1149.665004	2654.0
1150.220298	2668.399902
1150.775534	2666.399902
1151.330713	2674.0
1151.885834	2670.399902
1152.440898	2641.0
1152.995904	2649.0
1153.550853	2667.600098
1154.105745	2648.0
1154.660579	2645.600098
1155.215356	2647.800049
1155.770075	2649.600098
1156.324737	2637.399902
1156.879341	2658.0
1157.433889	2632.399902
1157.988378	2629.0
1158.542811	2654.199951
1159.097186	2658.0
1159.651503	2663.800049
1160.205764	2654.399902
1160.759966	2627.800049
1161.314112	2640.199951
1161.8682	2623.600098
1162.422231	2631.800049
1162.976204	2621.199951
1163.53012	2622.399902
1164.083979	2631.399902
1164.637781	2620.600098
1165.191525	2629.0
1165.745211	2622.600098
1166.298841	2628.199951
1166.852413	2618.800049
1167.405928	2626.0
1167.959385	2635.399902
1168.512785	2628.0
1169.066128	2628.600098
1169.619413	2632.0
1170.172642	2618.0
1170.725813	2590.800049
1171.278926	2603.800049
1171.831983	2659.800049
1172.384982	2606.600098
1172.937923	2614.199951
1173.490808	2638.600098
1174.043635	2608.600098
1174.596405	2602.800049
1175.149118	2602.0
1175.701773	2619.0
1176.254371	2621.199951
1176.806912	2587.600098
1177.359396	2623.800049
1177.911822	2591.800049
1178.464192	2592.800049
1179.016503	2599.0
1179.568758	2620.800049
1180.120956	2589.0
1180.673096	2601.199951
1181.225179	2602.800049
1181.777205	2589.399902
1182.329173	2601.399902
1182.881085	2610.199951
1183.432939	2573.399902
1183.984736	2579.399902
1184.536476	2592.800049
1185.088158	2581.399902
1185.639784	2599.0
1186.191352	2585.0
1186.742863	2576.600098
1187.294317	2592.199951
1187.845713	2584.199951
1188.397053	2585.800049
1188.948335	2582.0
1189.499561	2550.0
1190.050729	2571.600098
1190.601839	2575.199951
1191.152893	2581.800049
1191.70389	2563.399902
1192.254829	2588.199951
1192.805712	2554.399902
1193.356537	2589.199951
1193.907305	2540.800049
1194.458016	2579.399902
1195.00867	2562.600098
1195.559266	2568.199951
1196.109806	2542.600098
1196.660288	2563.199951
1197.210714	2561.399902
1197.761082	2557.600098
1198.311393	2554.199951
1198.861647	2552.399902
1199.411844	2550.800049
1199.961984	2542.199951
1200.512067	2567.199951
1201.062092	2524.0
1201.612061	2547.199951
1202.161973	2531.0
1202.711827	2535.800049
1203.261625	2528.399902
1203.811365	2541.800049
1204.361048	2504.600098
1204.910675	2558.800049
1205.460244	2536.0
1206.009756	2526.600098
1206.559211	2547.0
1207.10861	2542.199951
1207.657951	2521.199951
1208.207235	2540.600098
1208.756462	2545.0
1209.305632	2511.399902
1209.854745	2525.399902
1210.403801	2542.0
1210.9528	2523.199951
1211.501742	2524.199951
1212.050627	2524.800049
1212.599455	2501.600098
1213.148226	2535.800049
1213.69694	2519.399902
1214.245597	2510.600098
1214.794197	2510.600098
1215.34274	2519.199951
1215.891227	2494.600098
1216.439656	2495.600098
1216.988028	2521.0
1217.536343	2503.399902
1218.084602	2505.0
1218.632803	2520.800049
1219.180947	2497.600098
1219.729035	2518.800049
1220.277065	2519.800049
1220.825039	2508.399902
1221.372956	2489.600098
1221.920815	2503.0
1222.468618	2486.0
1223.016364	2487.0
1223.564053	2488.199951
1224.111685	2485.199951
1224.65926	2492.199951
1225.206779	2485.199951
1225.75424	2481.600098
1226.301645	2492.800049
1226.848992	2470.399902
1227.396283	2502.399902
1227.943517	2490.600098
1228.490694	2470.800049
1229.037814	2469.800049
1229.584877	2458.199951
1230.131883	2484.0
1230.678833	2449.199951
1231.225725	2463.800049
1231.772561	2449.199951
1232.31934	2451.399902
1232.866062	2466.399902
1233.412727	2455.0
1233.959336	2453.0
1234.505887	2446.600098
1235.052382	2442.0
1235.59882	2436.399902
1236.145201	2459.600098
1236.691525	2463.0
1237.237793	2444.800049
1237.784003	2458.199951
1238.330157	2431.0
1238.876254	2475.0
1239.422295	2463.600098
1239.968278	2448.199951
1240.514205	2473.600098
1241.060074	2452.0
1241.605888	2452.399902
1242.151644	2448.600098
1242.697343	2428.600098
1243.242986	2439.399902
1243.788572	2422.800049
1244.334101	2458.0
1244.879574	2439.0
1245.42499	2431.199951
1245.970349	2448.399902
1246.515651	2401.399902
1247.060896	2438.600098
1247.606085	2427.0
1248.151217	2432.0
1248.696292	2427.0
1249.241311	2436.199951
1249.786273	2412.199951
1250.331178	2431.0
1250.876026	2407.199951
1251.420818	2421.800049
1251.965553	2410.800049
1252.510231	2443.199951
1253.054853	2415.800049
1253.599418	2407.399902
1254.143926	2414.199951
1254.688377	2423.199951
1255.232772	2395.399902
1255.77711	2419.800049
1256.321392	2398.399902
1256.865617	2410.399902
1257.409785	2408.800049
1257.953896	2386.399902
1258.497951	2407.399902
1259.041949	2410.0
1259.585891	2400.0
1260.129776	2423.600098
1260.673604	2376.399902
1261.217375	2413.0
1261.76109	2427.199951
1262.304749	2393.199951
1262.84835	2410.800049
1263.391896	2409.0
1263.935384	2384.600098
1264.478816	2385.399902
1265.022191	2397.800049
1265.56551	2410.399902
1266.108772	2387.399902
1266.651977	2401.600098
1267.195126	2372.0
1267.738218	2394.199951
1268.281254	2382.800049
1268.824233	2401.399902
1269.367155	2380.0
1269.910021	2359.800049
1270.452831	2375.399902
1270.995583	2361.0
1271.53828	2360.0
1272.080919	2373.600098
1272.623502	2375.199951
1273.166029	2373.0
1273.708499	2369.600098
1274.250912	2376.800049
1274.793269	2384.800049
1275.33557	2350.399902
1275.877814	2374.0
1276.420001	2335.0
1276.962132	2385.199951
1277.504206	2357.600098
1278.046224	2352.0
1278.588185	2358.600098
1279.13009	2360.600098
1279.671938	2347.0
1280.21373	2355.199951
1280.755465	2345.800049
1281.297144	2364.800049
1281.838766	2348.600098
1282.380332	2347.0
1282.921841	2335.800049
1283.463294	2344.199951
1284.004691	2332.800049
1284.546031	2351.399902
1285.087314	2443.0
1285.628541	2495.199951
1286.169711	2387.399902
1286.710826	2347.399902
1287.251883	2347.0
1287.792884	2313.0
1288.333829	2346.199951
1288.874717	2333.199951
1289.415549	2336.0
1289.956325	2335.0
1290.497044	2343.199951
1291.037706	2320.199951
1291.578313	2331.600098
1292.118862	2324.0
1292.659356	2315.600098
1293.199793	2323.800049
1293.740173	2313.0
1294.280498	2304.199951
1294.820765	2318.0
1295.360977	2319.800049
1295.901132	2314.199951
1296.44123	2319.199951
1296.981273	2299.199951
1297.521259	2304.199951
1298.061188	2298.0
1298.601061	2309.800049
1299.140878	2305.399902
1299.680639	2338.0
1300.220343	2306.600098
1300.75999	2310.199951
1301.299582	2281.399902
1301.839117	2307.0
1302.378596	2293.399902
1302.918018	2291.199951
1303.457384	2299.800049
1303.996694	2312.600098
1304.535947	2292.399902
1305.075145	2320.800049
1305.614285	2292.600098
1306.15337	2282.800049
1306.692398	2290.800049
1307.23137	2300.0
1307.770286	2303.0
1308.309145	2274.800049
1308.847948	2305.199951
1309.386695	2296.399902
1309.925385	2332.800049
1310.464019	2294.399902
1311.002597	2290.600098
1311.541119	2276.600098
1312.079584	2284.199951
1312.617993	2282.0
1313.156346	2292.399902
1313.694643	2250.600098
1314.232883	2291.800049
1314.771067	2269.600098
1315.309195	2282.600098
1315.847267	2258.199951
1316.385282	2267.0
1316.923241	2266.199951
1317.461144	2263.199951
1317.998991	2263.199951
1318.536782	2242.199951
1319.074516	2251.199951
1319.612194	2247.800049
1320.149816	2248.600098
1320.687382	2263.399902
1321.224891	2249.199951
1321.762344	2253.600098
1322.299742	2250.800049
1322.837083	2251.800049
1323.374367	2243.199951
1323.911596	2258.199951
1324.448768	2261.600098
1324.985885	2249.399902
1325.522945	2253.399902
1326.059949	2239.199951
1326.596896	2242.199951
1327.133788	2249.0
1327.670623	2235.399902
1328.207403	2252.199951
1328.744126	2249.199951
1329.280793	2245.399902
1329.817404	2241.600098
1330.353959	2220.600098
1330.890457	2229.0
1331.4269	2235.800049
1331.963286	2234.399902
1332.499617	2232.199951
1333.035891	2234.800049
1333.572109	2223.800049
1334.108271	2218.0
1334.644377	2228.600098
1335.180427	2222.399902
1335.71642	2208.199951
1336.252358	2216.600098
1336.78824	2236.399902
1337.324065	2224.0
1337.859834	2211.399902
1338.395548	2220.199951
1338.931205	2215.199951
1339.466806	2212.800049
1340.002351	2215.600098
1340.537841	2185.399902
1341.073274	2218.199951
1341.608651	2208.0
1342.143972	2208.600098
1342.679236	2200.199951
1343.214445	2200.800049
1343.749598	2209.399902
1344.284695	2203.600098
1344.819736	2199.399902
1345.354721	2215.399902
1345.88965	2201.0
1346.424522	2193.0
1346.959339	2199.800049
1347.4941	2192.800049
1348.028805	2199.199951
1348.563453	2205.0
1349.098046	2209.399902
1349.632583	2182.800049
1350.167064	2212.800049
1350.701489	2186.199951
1351.235858	2199.600098
1351.770171	2185.0
1352.304428	2175.399902
1352.838629	2204.399902
1353.372774	2156.800049
1353.906863	2188.800049
1354.440896	2182.199951
1354.974873	2171.800049
1355.508794	2187.800049
1356.04266	2188.600098
1356.576469	2170.199951
1357.110222	2173.800049
1357.64392	2164.399902
1358.177561	2183.0
1358.711147	2170.199951
1359.244677	2188.199951
1359.778151	2152.600098
1360.311569	2171.600098
1360.844931	2170.199951
1361.378237	2176.199951
1361.911487	2152.199951
1362.444682	2172.0
1362.97782	2173.199951
1363.510903	2172.0
1364.043929	2155.199951
1364.5769	2166.0
1365.109815	2180.600098
1365.642674	2152.199951
1366.175478	2161.600098
1366.708225	2136.0
1367.240917	2176.399902
1367.773552	2130.600098
1368.306132	2141.600098
1368.838656	2141.199951
1369.371124	2158.600098
1369.903537	2142.800049
1370.435893	2161.800049
1370.968194	2135.600098
1371.500439	2128.399902
1372.032628	2152.199951
1372.564761	2128.800049
1373.096838	2144.800049
1373.62886	2134.600098
1374.160826	2151.600098
1374.692736	2137.800049
1375.22459	2146.600098
1375.756388	2120.800049
1376.288131	2145.399902
1376.819818	2131.199951
1377.351449	2132.600098
1377.883024	2118.399902
1378.414544	2130.199951
1378.946008	2128.800049
1379.477416	2122.199951
1380.008768	2111.399902
1380.540064	2129.0
1381.071305	2127.199951
1381.60249	2122.800049
1382.133619	2129.0
1382.664693	2114.0
1383.195711	2131.600098
1383.726673	2123.600098
1384.257579	2123.800049
1384.78843	2130.399902
1385.319224	2149.0
1385.849964	2107.199951
1386.380647	2138.800049
1386.911275	2122.399902
1387.441847	2150.199951
1387.972363	2187.0
1388.502824	2369.199951
1389.033229	2237.399902
1389.563578	2135.0
1390.093872	2106.199951
1390.62411	2130.399902
1391.154292	2118.0
1391.684419	2094.600098
1392.214489	2106.800049
1392.744505	2105.399902
1393.274464	2117.399902
1393.804368	2090.800049
1394.334216	2103.0
1394.864009	2091.0
1395.393746	2105.600098
1395.923427	2091.399902
1396.453053	2085.0
1396.982623	2095.800049
1397.512138	2091.0
1398.041597	2071.0
1398.571	2118.600098
1399.100347	2117.399902
1399.629639	2094.600098
1400.158876	2100.0
1400.688056	2109.800049
1401.217182	2101.600098
1401.746251	2087.199951
1402.275265	2079.0
1402.804224	2088.399902
1403.333126	2079.800049
1403.861974	2074.399902
1404.390765	2086.199951
1404.919501	2086.600098
1405.448182	2086.0
1405.976807	2074.800049
1406.505376	2088.800049
1407.03389	2083.600098
1407.562349	2089.800049
1408.090751	2070.399902
1408.619098	2094.600098
1409.14739	2082.800049
1409.675626	2094.600098
1410.203807	2099.600098
1410.731932	2088.0
1411.260001	2054.600098
1411.788015	2077.399902
1412.315974	2091.399902
1412.843877	2059.800049
1413.371725	2089.800049
1413.899516	2065.399902
1414.427253	2072.399902
1414.954934	2059.399902
1415.482559	2067.600098
1416.010129	2073.800049
1416.537644	2059.600098
1417.065103	2062.800049
1417.592507	2063.600098
1418.119855	2049.0
1418.647147	2060.800049
1419.174385	2047.0
1419.701566	2061.600098
1420.228692	2053.199951
1420.755763	2084.0
1421.282779	2058.600098
1421.809739	2052.0
1422.336643	2065.0
1422.863492	2060.800049
1423.390286	2037.0
1423.917024	2046.800049
1424.443707	2051.800049
1424.970334	2046.599976
1425.496906	2041.599976
1426.023422	2064.800049
1426.549883	2035.800049
1427.076289	2057.399902
1427.602639	2057.199951
1428.128934	2053.399902
1428.655174	2058.399902
1429.181358	2049.0
1429.707486	2030.800049
1430.23356	2032.400024
1430.759578	2044.0
1431.28554	2046.800049
1431.811448	2016.0
1432.337299	2039.599976
1432.863096	2028.800049
1433.388837	2025.800049
1433.914523	2025.0
1434.440153	2034.0
1434.965728	2039.400024
1435.491248	2032.800049
1436.016712	2037.599976
1436.542122	2039.599976
1437.067475	2014.0
1437.592774	2024.0
1438.118017	2034.400024
1438.643205	2034.400024
1439.168337	2025.800049
1439.693414	2036.199951
1440.218436	2019.800049
1440.743403	2010.800049
1441.268314	2019.400024
1441.79317	2003.599976
1442.31797	2028.199951
1442.842716	2013.599976
1443.367406	2022.400024
1443.892041	2005.400024
1444.41662	2001.599976
1444.941145	2010.400024
1445.465614	2012.400024
1445.990027	2003.199951
1446.514386	2010.400024
1447.038689	2003.400024
1447.562937	2008.199951
1448.08713	2016.800049
1448.611267	2009.199951
1449.13535	2026.199951
1449.659377	2014.199951
1450.183348	2005.199951
1450.707265	1998.599976
1451.231126	1996.0
1451.754932	1996.599976
1452.278683	1985.800049
1452.802379	1995.0
1453.32602	1975.599976
1453.849605	2000.599976
1454.373135	1997.800049
1454.89661	1998.0
1455.42003	1983.599976
1455.943394	1975.199951
1456.466703	1990.400024
1456.989958	1993.199951
1457.513157	2004.800049
1458.0363	1977.199951
1458.559389	1981.199951
1459.082423	1969.800049
1459.605401	1986.199951
1460.128324	1974.0
1460.651192	1981.199951
1461.174005	1991.800049
1461.696763	1974.800049
1462.219465	1974.199951
1462.742113	1967.800049
1463.264705	1975.400024
1463.787242	1978.0
1464.309724	1979.400024
1464.832151	1971.800049
1465.354523	1955.400024
1465.87684	1979.599976
1466.399102	1976.599976
1466.921308	1970.400024
1467.443459	1961.0
1467.965556	1953.0
1468.487597	1954.800049
1469.009583	1953.0
1469.531514	1962.800049
1470.05339	1973.199951
1470.575211	1961.0
1471.096977	1966.800049
1471.618688	1944.199951
1472.140343	1944.599976
1472.661944	1957.0
1473.18349	1948.400024
1473.70498	1945.400024
1474.226416	1951.800049
1474.747796	1958.599976
1475.269122	1962.599976
1475.790392	1942.199951
1476.311607	1958.0
1476.832768	1942.400024
1477.353873	1947.800049
1477.874923	1943.0
1478.395918	1930.199951
1478.916859	1940.400024
1479.437744	1931.400024
1479.958574	1928.199951
1480.479349	1922.599976
1481.00007	1942.599976
1481.520735	1930.0
1482.041345	1937.199951
1482.5619	1927.800049
1483.082401	1928.599976
1483.602846	1938.800049
1484.123236	1922.800049
1484.643572	1948.400024
1485.163852	1928.0
1485.684077	1907.400024
1486.204248	1909.199951
1486.724363	1934.599976
1487.244424	1927.400024
1487.76443	1925.800049
1488.28438	1920.400024
1488.804276	1919.199951
1489.324117	1912.800049
1489.843903	1911.199951
1490.363634	1928.599976
1490.88331	1920.400024
1491.402931	1895.199951
1491.922497	1919.199951
1492.442008	1926.0
1492.961465	1912.400024
1493.480866	1903.199951
1494.000213	1907.800049
1494.519505	1906.0
1495.038741	1911.599976
1495.557923	1901.0
1496.07705	1883.400024
1496.596122	1889.0
1497.11514	1905.800049
1497.634102	1923.0
1498.15301	1885.199951
1498.671862	1879.800049
1499.19066	1901.199951
1499.709403	1890.800049
1500.228091	1882.800049
1500.746725	1889.599976
1501.265303	1896.599976
1501.783827	1881.599976
1502.302296	1893.599976
1502.820709	1892.0
1503.339069	1887.800049
1503.857373	1871.0
1504.375622	1888.199951
1504.893817	1894.599976
1505.411957	1875.599976
1505.930042	1884.800049
1506.448072	1884.800049
1506.966048	1885.199951
1507.483968	1889.400024
1508.001834	1879.0
1508.519645	1872.199951
1509.037401	1885.199951
1509.555103	1891.0
1510.07275	1854.400024
1510.590342	1890.599976
1511.107879	1868.0
1511.625361	1860.800049
1512.142789	1866.800049
1512.660162	1876.400024
1513.17748	1869.800049
1513.694743	1875.0
1514.211952	1876.0
1514.729106	1861.400024
1515.246205	1876.0
1515.76325	1866.0
1516.280239	1890.0
1516.797174	1851.400024
1517.314055	1867.599976
1517.83088	1854.400024
1518.347651	1856.0
1518.864367	1866.0
1519.381029	1863.599976
1519.897635	1875.599976
1520.414187	1842.800049
1520.930685	1860.0
1521.447127	1845.599976
1521.963515	1862.0
1522.479849	1865.599976
1522.996127	1835.199951
1523.512351	1844.599976
1524.028521	1859.0
1524.544635	1867.400024
1525.060695	1861.0
1525.576701	1845.599976
1526.092651	1847.199951
1526.608547	1858.199951
1527.124389	1850.400024
1527.640175	1859.800049
1528.155907	1854.800049
1528.671585	1853.599976
1529.187208	1842.599976
1529.702776	1848.599976
1530.218289	1857.400024
1530.733748	1847.800049
1531.249153	1863.599976
1531.764502	1834.0
1532.279798	1845.400024
1532.795038	1852.400024
1533.310224	1851.800049
1533.825355	1847.800049
1534.340432	1842.800049
1534.855454	1863.199951
1535.370422	1828.199951
1535.885335	1834.599976
1536.400193	1840.400024
1536.914997	1836.0
1537.429746	1816.0
1537.944441	1846.800049
1538.459081	1828.800049
1538.973667	1836.199951
1539.488198	1833.800049
1540.002674	1840.800049
1540.517096	1843.199951
1541.031464	1836.800049
1541.545777	1838.800049
1542.060035	1830.599976
1542.574239	1844.599976
1543.088388	1820.400024
1543.602483	1836.800049
1544.116523	1822.199951
1544.630509	1852.199951
1545.14444	1824.800049
1545.658317	1832.599976
1546.172139	1834.0
1546.685907	1825.400024
1547.19962	1836.199951
1547.713279	1836.199951
1548.226883	1829.199951
1548.740433	1814.599976
1549.253929	1821.199951
1549.76737	1818.800049
1550.280756	1825.800049
1550.794088	1829.400024
1551.307365	1822.400024
1551.820588	1825.800049
1552.333757	1830.400024
1552.846871	1818.599976
1553.359931	1813.599976
1553.872936	1839.400024
1554.385887	1819.199951
1554.898783	1809.400024
1555.411625	1807.599976
1555.924413	1827.400024
1556.437146	1809.800049
1556.949824	1819.0
1557.462449	1817.199951
1557.975019	1819.0
1558.487534	1823.800049
1558.999995	1798.199951
1559.512402	1822.800049
1560.024754	1816.599976
1560.537052	1818.199951
1561.049295	1789.800049
1561.561485	1816.599976
1562.073619	1803.199951
1562.5857	1815.400024
1563.097726	1804.0
1563.609697	1813.599976
1564.121615	1809.800049
1564.633477	1796.0
1565.145286	1820.800049
1565.65704	1807.400024
1566.16874	1812.0
1566.680386	1811.400024
1567.191977	1809.800049
1567.703514	1807.0
1568.214996	1807.400024
1568.726424	1804.199951
1569.237798	1787.199951
1569.749118	1802.199951
1570.260383	1793.599976
1570.771594	1808.199951
1571.28275	1792.199951
1571.793853	1801.800049
1572.304901	1780.599976
1572.815895	1790.800049
1573.326834	1807.599976
1573.837719	1807.400024
1574.34855	1803.400024
1574.859327	1792.599976
1575.370049	1788.599976
1575.880717	1794.400024
1576.391331	1812.599976
1576.90189	1794.199951
1577.412395	1802.599976
1577.922846	1775.199951
1578.433243	1766.199951
1578.943586	1773.199951
1579.453874	1771.800049
1579.964108	1779.800049
1580.474288	1779.400024
1580.984413	1782.800049
1581.494484	1766.199951
1582.004501	1778.599976
1582.514464	1777.199951
1583.024373	1779.800049
1583.534227	1765.0
1584.044028	1772.0
1584.553774	1789.199951
1585.063465	1774.0
1585.573103	1782.0
1586.082687	1765.0
1586.592216	1795.0
1587.101691	1775.0
1587.611112	1788.400024
1588.120478	1771.199951
1588.629791	1793.400024
1589.139049	1762.400024
1589.648253	1795.199951
1590.157403	1780.0
1590.666499	1761.400024
1591.175541	1785.800049
1591.684529	1756.199951
1592.193462	1791.199951
