 1.042545976E+03	 2.134000000E+03
 1.043112314E+03	 2.102600098E+03
 1.043678594E+03	 2.123000000E+03
 1.044244816E+03	 2.115800049E+03
 1.044810979E+03	 2.109800049E+03
 1.045377084E+03	 2.093199951E+03
 1.045943132E+03	 2.124199951E+03
 1.046509121E+03	 2.105600098E+03
 1.047075052E+03	 2.106800049E+03
 1.047640924E+03	 2.111600098E+03
 1.048206739E+03	 2.118000000E+03
 1.048772495E+03	 2.118600098E+03
 1.049338193E+03	 2.114000000E+03
 1.049903833E+03	 2.078600098E+03
 1.050469415E+03	 2.093600098E+03
 1.051034939E+03	 2.095600098E+03
 1.051600404E+03	 2.091600098E+03
 1.052165811E+03	 2.086399902E+03
 1.052731161E+03	 2.093800049E+03
 1.053296452E+03	 2.094800049E+03
 1.053861685E+03	 2.091199951E+03
 1.054426859E+03	 2.085199951E+03
 1.054991976E+03	 2.089199951E+03
 1.055557035E+03	 2.058600098E+03
 1.056122035E+03	 2.105600098E+03
 1.056686978E+03	 2.100600098E+03
 1.057251862E+03	 2.099399902E+03
 1.057816688E+03	 2.059000000E+03
 1.058381456E+03	 2.085600098E+03
 1.058946166E+03	 2.069199951E+03
 1.059510818E+03	 2.075399902E+03
 1.060075411E+03	 2.098199951E+03
 1.060639947E+03	 2.076199951E+03
 1.061204425E+03	 2.075199951E+03
 1.061768844E+03	 2.084199951E+03
 1.062333206E+03	 2.079000000E+03
 1.062897509E+03	 2.083800049E+03
 1.063461754E+03	 2.073399902E+03
 1.064025942E+03	 2.049399902E+03
 1.064590071E+03	 2.053000000E+03
 1.065154142E+03	 2.090399902E+03
 1.065718155E+03	 2.082600098E+03
 1.066282110E+03	 2.060000000E+03
 1.066846007E+03	 2.063000000E+03
 1.067409846E+03	 2.078000000E+03
 1.067973627E+03	 2.049199951E+03
 1.068537350E+03	 2.096199951E+03
 1.069101014E+03	 2.059399902E+03
 1.069664621E+03	 2.041800049E+03
 1.070228170E+03	 2.071399902E+03
 1.070791661E+03	 2.058600098E+03
 1.071355094E+03	 2.059399902E+03
 1.071918469E+03	 2.064000000E+03
 1.072481785E+03	 2.049399902E+03
 1.073045044E+03	 2.072199951E+03
 1.073608245E+03	 2.047800049E+03
 1.074171388E+03	 2.052399902E+03
 1.074734473E+03	 2.039000000E+03
 1.075297499E+03	 2.053600098E+03
 1.075860468E+03	 2.038400024E+03
 1.076423379E+03	 2.052000000E+03
 1.076986232E+03	 2.017800049E+03
 1.077549027E+03	 2.022199951E+03
 1.078111764E+03	 2.034800049E+03
 1.078674443E+03	 2.040800049E+03
 1.079237064E+03	 2.020199951E+03
 1.079799627E+03	 2.023599976E+03
 1.080362132E+03	 2.051000000E+03
 1.080924580E+03	 2.035000000E+03
 1.081486969E+03	 2.031400024E+03
 1.082049300E+03	 2.033800049E+03
 1.082611574E+03	 2.048199951E+03
 1.083173789E+03	 2.010599976E+03
 1.083735947E+03	 2.030599976E+03
 1.084298047E+03	 2.033599976E+03
 1.084860088E+03	 2.029599976E+03
 1.085422072E+03	 2.044199951E+03
 1.085983998E+03	 2.011000000E+03
 1.086545866E+03	 2.030000000E+03
 1.087107677E+03	 2.011000000E+03
 1.087669429E+03	 2.016800049E+03
 1.088231123E+03	 2.009400024E+03
 1.088792760E+03	 2.014000000E+03
 1.089354338E+03	 1.998199951E+03
 1.089915859E+03	 2.015199951E+03
 1.090477322E+03	 2.017800049E+03
 1.091038727E+03	 1.996000000E+03
 1.091600074E+03	 1.989800049E+03
 1.092161363E+03	 1.995800049E+03
 1.092722595E+03	 1.987199951E+03
 1.093283768E+03	 2.010400024E+03
 1.093844884E+03	 1.988800049E+03
 1.094405942E+03	 1.987000000E+03
 1.094966942E+03	 1.984800049E+03
 1.095527884E+03	 2.009599976E+03
 1.096088768E+03	 1.979199951E+03
 1.096649595E+03	 1.991000000E+03
 1.097210364E+03	 1.992000000E+03
 1.097771074E+03	 1.990800049E+03
 1.098331728E+03	 1.974199951E+03
 1.098892323E+03	 2.006400024E+03
 1.099452860E+03	 1.972599976E+03
 1.100013340E+03	 1.990000000E+03
 1.100573762E+03	 1.960599976E+03
 1.101134126E+03	 1.977599976E+03
 1.101694432E+03	 1.982400024E+03
 1.102254680E+03	 1.989400024E+03
 1.102814871E+03	 1.963000000E+03
 1.103375004E+03	 1.972599976E+03
 1.103935079E+03	 1.965800049E+03
 1.104495096E+03	 1.980199951E+03
 1.105055056E+03	 1.948800049E+03
 1.105614958E+03	 1.958199951E+03
 1.106174802E+03	 1.963800049E+03
 1.106734588E+03	 1.946599976E+03
 1.107294317E+03	 1.949199951E+03
 1.107853987E+03	 1.946199951E+03
 1.108413600E+03	 1.938199951E+03
 1.108973156E+03	 1.950599976E+03
 1.109532653E+03	 1.954000000E+03
 1.110092093E+03	 1.965000000E+03
 1.110651475E+03	 1.971199951E+03
 1.111210800E+03	 1.952800049E+03
 1.111770066E+03	 1.954000000E+03
 1.112329275E+03	 1.978400024E+03
 1.112888426E+03	 1.941000000E+03
 1.113447520E+03	 1.969800049E+03
 1.114006556E+03	 1.937599976E+03
 1.114565534E+03	 1.938400024E+03
 1.115124454E+03	 1.937400024E+03
 1.115683317E+03	 1.943400024E+03
 1.116242122E+03	 1.959000000E+03
 1.116800869E+03	 1.954000000E+03
 1.117359559E+03	 1.930599976E+03
 1.117918191E+03	 1.945400024E+03
 1.118476765E+03	 1.940400024E+03
 1.119035282E+03	 1.958400024E+03
 1.119593741E+03	 1.936199951E+03
 1.120152142E+03	 1.939000000E+03
 1.120710486E+03	 1.923400024E+03
 1.121268772E+03	 1.929199951E+03
 1.121827000E+03	 1.924599976E+03
 1.122385171E+03	 1.930000000E+03
 1.122943284E+03	 1.940199951E+03
 1.123501340E+03	 1.933000000E+03
 1.124059337E+03	 1.934000000E+03
 1.124617277E+03	 1.932400024E+03
 1.125175160E+03	 1.930400024E+03
 1.125732985E+03	 1.919199951E+03
 1.126290752E+03	 1.933400024E+03
 1.126848462E+03	 1.913800049E+03
 1.127406114E+03	 1.910400024E+03
 1.127963709E+03	 1.923199951E+03
 1.128521245E+03	 1.914800049E+03
 1.129078725E+03	 1.921199951E+03
 1.129636146E+03	 1.907000000E+03
 1.130193511E+03	 1.907599976E+03
 1.130750817E+03	 1.909599976E+03
 1.131308066E+03	 1.925400024E+03
 1.131865257E+03	 1.921599976E+03
 1.132422391E+03	 1.927000000E+03
 1.132979467E+03	 1.917800049E+03
 1.133536486E+03	 1.935800049E+03
 1.134093447E+03	 1.909800049E+03
 1.134650351E+03	 1.928400024E+03
 1.135207197E+03	 1.914599976E+03
 1.135763985E+03	 1.925000000E+03
 1.136320716E+03	 1.909599976E+03
 1.136877389E+03	 1.926800049E+03
 1.137434005E+03	 1.906400024E+03
 1.137990563E+03	 1.893800049E+03
 1.138547064E+03	 1.899199951E+03
 1.139103507E+03	 1.920000000E+03
 1.139659893E+03	 1.902000000E+03
 1.140216221E+03	 1.921400024E+03
 1.140772492E+03	 1.904800049E+03
 1.141328705E+03	 1.900000000E+03
 1.141884861E+03	 1.905000000E+03
 1.142440959E+03	 1.895400024E+03
 1.142997000E+03	 1.877000000E+03
 1.143552983E+03	 1.909599976E+03
 1.144108908E+03	 1.883400024E+03
 1.144664777E+03	 1.907800049E+03
 1.145220587E+03	 1.894599976E+03
 1.145776341E+03	 1.890199951E+03
 1.146332036E+03	 1.880199951E+03
 1.146887675E+03	 1.889599976E+03
 1.147443256E+03	 1.885800049E+03
 1.147998779E+03	 1.903800049E+03
 1.148554245E+03	 1.878199951E+03
 1.149109653E+03	 1.903800049E+03
 1.149665004E+03	 1.902599976E+03
 1.150220298E+03	 1.889199951E+03
 1.150775534E+03	 1.897800049E+03
 1.151330713E+03	 1.903800049E+03
 1.151885834E+03	 1.896800049E+03
 1.152440898E+03	 1.907000000E+03
 1.152995904E+03	 1.875199951E+03
 1.153550853E+03	 1.892599976E+03
 1.154105745E+03	 1.911800049E+03
 1.154660579E+03	 1.899800049E+03
 1.155215356E+03	 1.894400024E+03
 1.155770075E+03	 1.905199951E+03
 1.156324737E+03	 1.885199951E+03
 1.156879341E+03	 1.896400024E+03
 1.157433889E+03	 1.878400024E+03
 1.157988378E+03	 1.895400024E+03
 1.158542811E+03	 1.898400024E+03
 1.159097186E+03	 1.891199951E+03
 1.159651503E+03	 1.891800049E+03
 1.160205764E+03	 1.871000000E+03
 1.160759966E+03	 1.884199951E+03
 1.161314112E+03	 1.885000000E+03
 1.161868200E+03	 1.884400024E+03
 1.162422231E+03	 1.876599976E+03
 1.162976204E+03	 1.898199951E+03
 1.163530120E+03	 1.867599976E+03
 1.164083979E+03	 1.888599976E+03
 1.164637781E+03	 1.874400024E+03
 1.165191525E+03	 1.893400024E+03
 1.165745211E+03	 1.884000000E+03
 1.166298841E+03	 1.886400024E+03
 1.166852413E+03	 1.878199951E+03
 1.167405928E+03	 1.887000000E+03
 1.167959385E+03	 1.892800049E+03
 1.168512785E+03	 1.882199951E+03
 1.169066128E+03	 1.896199951E+03
 1.169619413E+03	 1.869400024E+03
 1.170172642E+03	 1.862800049E+03
 1.170725813E+03	 1.885199951E+03
 1.171278926E+03	 1.881599976E+03
 1.171831983E+03	 1.880400024E+03
 1.172384982E+03	 1.875000000E+03
 1.172937923E+03	 1.862400024E+03
 1.173490808E+03	 1.870800049E+03
 1.174043635E+03	 1.877000000E+03
 1.174596405E+03	 1.880400024E+03
 1.175149118E+03	 1.886400024E+03
 1.175701773E+03	 1.865800049E+03
 1.176254371E+03	 1.883400024E+03
 1.176806912E+03	 1.842000000E+03
 1.177359396E+03	 1.872000000E+03
 1.177911822E+03	 1.879599976E+03
 1.178464192E+03	 1.848199951E+03
 1.179016503E+03	 1.846599976E+03
 1.179568758E+03	 1.867400024E+03
 1.180120956E+03	 1.841599976E+03
 1.180673096E+03	 1.854000000E+03
 1.181225179E+03	 1.861400024E+03
 1.181777205E+03	 1.861199951E+03
 1.182329173E+03	 1.853599976E+03
 1.182881085E+03	 1.856199951E+03
 1.183432939E+03	 1.849199951E+03
 1.183984736E+03	 1.840400024E+03
 1.184536476E+03	 1.845599976E+03
 1.185088158E+03	 1.844599976E+03
 1.185639784E+03	 1.829800049E+03
 1.186191352E+03	 1.835400024E+03
 1.186742863E+03	 1.858000000E+03
 1.187294317E+03	 1.847599976E+03
 1.187845713E+03	 1.843400024E+03
 1.188397053E+03	 1.845400024E+03
 1.188948335E+03	 1.845400024E+03
 1.189499561E+03	 1.826000000E+03
 1.190050729E+03	 1.843800049E+03
 1.190601839E+03	 1.842199951E+03
 1.191152893E+03	 1.845599976E+03
 1.191703890E+03	 1.843199951E+03
 1.192254829E+03	 1.856199951E+03
 1.192805712E+03	 1.843199951E+03
 1.193356537E+03	 1.854599976E+03
 1.193907305E+03	 1.847000000E+03
 1.194458016E+03	 1.827000000E+03
 1.195008670E+03	 1.833400024E+03
 1.195559266E+03	 1.833800049E+03
 1.196109806E+03	 1.828199951E+03
 1.196660288E+03	 1.826199951E+03
 1.197210714E+03	 1.833400024E+03
 1.197761082E+03	 1.826199951E+03
 1.198311393E+03	 1.834400024E+03
 1.198861647E+03	 1.817400024E+03
 1.199411844E+03	 1.826400024E+03
 1.199961984E+03	 1.821599976E+03
 1.200512067E+03	 1.830400024E+03
 1.201062092E+03	 1.826199951E+03
 1.201612061E+03	 1.830199951E+03
 1.202161973E+03	 1.816800049E+03
 1.202711827E+03	 1.830000000E+03
 1.203261625E+03	 1.827400024E+03
 1.203811365E+03	 1.817000000E+03
 1.204361048E+03	 1.837800049E+03
 1.204910675E+03	 1.819800049E+03
 1.205460244E+03	 1.812199951E+03
 1.206009756E+03	 1.823199951E+03
 1.206559211E+03	 1.817599976E+03
 1.207108610E+03	 1.828400024E+03
 1.207657951E+03	 1.823800049E+03
 1.208207235E+03	 1.823000000E+03
 1.208756462E+03	 1.799000000E+03
 1.209305632E+03	 1.800400024E+03
 1.209854745E+03	 1.797599976E+03
 1.210403801E+03	 1.794599976E+03
 1.210952800E+03	 1.803400024E+03
 1.211501742E+03	 1.814800049E+03
 1.212050627E+03	 1.802000000E+03
 1.212599455E+03	 1.798800049E+03
 1.213148226E+03	 1.806599976E+03
 1.213696940E+03	 1.801599976E+03
 1.214245597E+03	 1.810800049E+03
 1.214794197E+03	 1.792599976E+03
 1.215342740E+03	 1.794800049E+03
 1.215891227E+03	 1.803599976E+03
 1.216439656E+03	 1.794400024E+03
 1.216988028E+03	 1.794800049E+03
 1.217536343E+03	 1.790599976E+03
 1.218084602E+03	 1.781000000E+03
 1.218632803E+03	 1.792800049E+03
 1.219180947E+03	 1.784800049E+03
 1.219729035E+03	 1.793599976E+03
 1.220277065E+03	 1.773199951E+03
 1.220825039E+03	 1.796599976E+03
 1.221372956E+03	 1.803199951E+03
 1.221920815E+03	 1.791199951E+03
 1.222468618E+03	 1.781000000E+03
 1.223016364E+03	 1.804000000E+03
 1.223564053E+03	 1.786400024E+03
 1.224111685E+03	 1.791800049E+03
 1.224659260E+03	 1.759199951E+03
 1.225206779E+03	 1.778000000E+03
 1.225754240E+03	 1.780000000E+03
 1.226301645E+03	 1.770599976E+03
 1.226848992E+03	 1.770000000E+03
 1.227396283E+03	 1.782599976E+03
 1.227943517E+03	 1.791599976E+03
 1.228490694E+03	 1.779000000E+03
 1.229037814E+03	 1.774400024E+03
 1.229584877E+03	 1.775400024E+03
 1.230131883E+03	 1.781000000E+03
 1.230678833E+03	 1.763800049E+03
 1.231225725E+03	 1.826400024E+03
 1.231772561E+03	 2.451600098E+03
 1.232319340E+03	 1.785000000E+03
 1.232866062E+03	 1.772800049E+03
 1.233412727E+03	 1.783000000E+03
 1.233959336E+03	 1.776599976E+03
 1.234505887E+03	 1.766000000E+03
 1.235052382E+03	 1.758400024E+03
 1.235598820E+03	 1.777599976E+03
 1.236145201E+03	 1.764199951E+03
 1.236691525E+03	 1.760599976E+03
 1.237237793E+03	 1.761199951E+03
 1.237784003E+03	 1.769000000E+03
 1.238330157E+03	 1.746800049E+03
 1.238876254E+03	 1.779400024E+03
 1.239422295E+03	 1.757000000E+03
 1.239968278E+03	 1.765800049E+03
 1.240514205E+03	 1.751199951E+03
 1.241060074E+03	 1.777000000E+03
 1.241605888E+03	 1.751800049E+03
 1.242151644E+03	 1.767199951E+03
 1.242697343E+03	 1.761199951E+03
 1.243242986E+03	 1.761599976E+03
 1.243788572E+03	 1.746199951E+03
 1.244334101E+03	 1.757199951E+03
 1.244879574E+03	 1.749800049E+03
 1.245424990E+03	 1.755800049E+03
 1.245970349E+03	 1.751599976E+03
 1.246515651E+03	 1.743199951E+03
 1.247060896E+03	 1.743800049E+03
 1.247606085E+03	 1.756599976E+03
 1.248151217E+03	 1.747199951E+03
 1.248696292E+03	 1.748599976E+03
 1.249241311E+03	 1.746199951E+03
 1.249786273E+03	 1.755199951E+03
 1.250331178E+03	 1.750000000E+03
 1.250876026E+03	 1.740199951E+03
 1.251420818E+03	 1.743199951E+03
 1.251965553E+03	 1.738400024E+03
 1.252510231E+03	 1.743000000E+03
 1.253054853E+03	 1.738599976E+03
 1.253599418E+03	 1.737000000E+03
 1.254143926E+03	 1.754000000E+03
 1.254688377E+03	 1.745000000E+03
 1.255232772E+03	 1.736199951E+03
 1.255777110E+03	 1.732000000E+03
 1.256321392E+03	 1.731000000E+03
 1.256865617E+03	 1.730800049E+03
 1.257409785E+03	 1.726599976E+03
 1.257953896E+03	 1.743400024E+03
 1.258497951E+03	 1.737000000E+03
 1.259041949E+03	 1.740199951E+03
 1.259585891E+03	 1.733800049E+03
 1.260129776E+03	 1.737800049E+03
 1.260673604E+03	 1.734800049E+03
 1.261217375E+03	 1.729800049E+03
 1.261761090E+03	 1.728599976E+03
 1.262304749E+03	 1.738599976E+03
 1.262848350E+03	 1.726199951E+03
 1.263391896E+03	 1.729199951E+03
 1.263935384E+03	 1.730400024E+03
 1.264478816E+03	 1.727400024E+03
 1.265022191E+03	 1.734000000E+03
 1.265565510E+03	 1.731800049E+03
 1.266108772E+03	 1.726000000E+03
 1.266651977E+03	 1.708199951E+03
 1.267195126E+03	 1.720800049E+03
 1.267738218E+03	 1.720000000E+03
 1.268281254E+03	 1.723800049E+03
 1.268824233E+03	 1.707400024E+03
 1.269367155E+03	 1.733800049E+03
 1.269910021E+03	 1.726400024E+03
 1.270452831E+03	 1.735400024E+03
 1.270995583E+03	 1.713199951E+03
 1.271538280E+03	 1.722800049E+03
 1.272080919E+03	 1.726000000E+03
 1.272623502E+03	 1.714599976E+03
 1.273166029E+03	 1.713400024E+03
 1.273708499E+03	 1.741000000E+03
 1.274250912E+03	 1.716400024E+03
 1.274793269E+03	 1.702800049E+03
 1.275335570E+03	 1.695199951E+03
 1.275877814E+03	 1.692199951E+03
 1.276420001E+03	 1.710000000E+03
 1.276962132E+03	 1.709199951E+03
 1.277504206E+03	 1.711199951E+03
 1.278046224E+03	 1.719400024E+03
 1.278588185E+03	 1.699800049E+03
 1.279130090E+03	 1.700800049E+03
 1.279671938E+03	 1.697400024E+03
 1.280213730E+03	 1.699000000E+03
 1.280755465E+03	 1.706599976E+03
 1.281297144E+03	 1.717599976E+03
 1.281838766E+03	 1.709199951E+03
 1.282380332E+03	 1.704000000E+03
 1.282921841E+03	 1.704800049E+03
 1.283463294E+03	 1.696800049E+03
 1.284004691E+03	 1.698199951E+03
 1.284546031E+03	 1.707000000E+03
 1.285087314E+03	 1.804400024E+03
 1.285628541E+03	 1.859400024E+03
 1.286169711E+03	 1.724000000E+03
 1.286710826E+03	 1.698400024E+03
 1.287251883E+03	 1.692800049E+03
 1.287792884E+03	 1.672599976E+03
 1.288333829E+03	 1.709000000E+03
 1.288874717E+03	 1.676000000E+03
 1.289415549E+03	 1.678599976E+03
 1.289956325E+03	 1.678400024E+03
 1.290497044E+03	 1.671400024E+03
 1.291037706E+03	 1.691199951E+03
 1.291578313E+03	 1.692000000E+03
 1.292118862E+03	 1.660599976E+03
 1.292659356E+03	 1.683800049E+03
 1.293199793E+03	 1.688400024E+03
 1.293740173E+03	 1.681800049E+03
 1.294280498E+03	 1.692599976E+03
 1.294820765E+03	 1.694000000E+03
 1.295360977E+03	 1.673800049E+03
 1.295901132E+03	 1.683400024E+03
 1.296441230E+03	 1.677800049E+03
 1.296981273E+03	 1.684199951E+03
 1.297521259E+03	 1.673199951E+03
 1.298061188E+03	 1.660599976E+03
 1.298601061E+03	 1.681400024E+03
 1.299140878E+03	 1.671599976E+03
 1.299680639E+03	 1.679199951E+03
 1.300220343E+03	 1.678599976E+03
 1.300759990E+03	 1.677000000E+03
 1.301299582E+03	 1.667400024E+03
 1.301839117E+03	 1.663400024E+03
 1.302378596E+03	 1.665199951E+03
 1.302918018E+03	 1.682400024E+03
 1.303457384E+03	 1.665199951E+03
 1.303996694E+03	 1.667400024E+03
 1.304535947E+03	 1.676000000E+03
 1.305075145E+03	 1.671599976E+03
 1.305614285E+03	 1.663800049E+03
 1.306153370E+03	 1.678000000E+03
 1.306692398E+03	 1.653599976E+03
 1.307231370E+03	 1.666800049E+03
 1.307770286E+03	 1.669199951E+03
 1.308309145E+03	 1.666599976E+03
 1.308847948E+03	 1.673000000E+03
 1.309386695E+03	 1.664000000E+03
 1.309925385E+03	 1.679400024E+03
 1.310464019E+03	 1.688400024E+03
 1.311002597E+03	 1.676800049E+03
 1.311541119E+03	 1.659199951E+03
 1.312079584E+03	 1.663000000E+03
 1.312617993E+03	 1.655000000E+03
 1.313156346E+03	 1.660800049E+03
 1.313694643E+03	 1.651199951E+03
 1.314232883E+03	 1.677199951E+03
 1.314771067E+03	 1.663000000E+03
 1.315309195E+03	 1.649599976E+03
 1.315847267E+03	 1.730599976E+03
 1.316385282E+03	 3.188399902E+03
 1.316923241E+03	 1.674800049E+03
 1.317461144E+03	 1.652599976E+03
 1.317998991E+03	 1.655800049E+03
 1.318536782E+03	 1.653800049E+03
 1.319074516E+03	 1.655199951E+03
 1.319612194E+03	 1.645599976E+03
 1.320149816E+03	 1.631199951E+03
 1.320687382E+03	 1.644599976E+03
 1.321224891E+03	 1.655599976E+03
 1.321762344E+03	 1.638199951E+03
 1.322299742E+03	 1.631199951E+03
 1.322837083E+03	 1.644000000E+03
 1.323374367E+03	 1.642000000E+03
 1.323911596E+03	 1.640199951E+03
 1.324448768E+03	 1.638800049E+03
 1.324985885E+03	 1.640199951E+03
 1.325522945E+03	 1.642000000E+03
 1.326059949E+03	 1.644400024E+03
 1.326596896E+03	 1.645400024E+03
 1.327133788E+03	 1.634400024E+03
 1.327670623E+03	 1.647000000E+03
 1.328207403E+03	 1.630000000E+03
 1.328744126E+03	 1.623199951E+03
 1.329280793E+03	 1.620000000E+03
 1.329817404E+03	 1.649199951E+03
 1.330353959E+03	 1.624599976E+03
 1.330890457E+03	 1.639199951E+03
 1.331426900E+03	 1.637400024E+03
 1.331963286E+03	 1.640199951E+03
 1.332499617E+03	 1.627599976E+03
 1.333035891E+03	 1.624400024E+03
 1.333572109E+03	 1.616800049E+03
 1.334108271E+03	 1.619199951E+03
 1.334644377E+03	 1.632800049E+03
 1.335180427E+03	 1.623199951E+03
 1.335716420E+03	 1.620400024E+03
 1.336252358E+03	 1.614400024E+03
 1.336788240E+03	 1.623599976E+03
 1.337324065E+03	 1.636800049E+03
 1.337859834E+03	 1.621000000E+03
 1.338395548E+03	 1.618800049E+03
 1.338931205E+03	 1.632000000E+03
 1.339466806E+03	 1.611000000E+03
 1.340002351E+03	 1.621199951E+03
 1.340537841E+03	 1.625599976E+03
 1.341073274E+03	 1.613800049E+03
 1.341608651E+03	 1.610800049E+03
 1.342143972E+03	 1.615199951E+03
 1.342679236E+03	 1.621400024E+03
 1.343214445E+03	 1.604400024E+03
 1.343749598E+03	 1.616199951E+03
 1.344284695E+03	 1.598400024E+03
 1.344819736E+03	 1.615000000E+03
 1.345354721E+03	 1.601199951E+03
 1.345889650E+03	 1.596199951E+03
 1.346424522E+03	 1.594000000E+03
 1.346959339E+03	 1.608199951E+03
 1.347494100E+03	 1.598000000E+03
 1.348028805E+03	 1.619599976E+03
 1.348563453E+03	 1.609599976E+03
 1.349098046E+03	 1.614599976E+03
 1.349632583E+03	 1.613400024E+03
 1.350167064E+03	 1.604599976E+03
 1.350701489E+03	 1.591599976E+03
 1.351235858E+03	 1.599599976E+03
 1.351770171E+03	 1.609599976E+03
 1.352304428E+03	 1.616000000E+03
 1.352838629E+03	 1.587400024E+03
 1.353372774E+03	 1.589800049E+03
 1.353906863E+03	 1.604800049E+03
 1.354440896E+03	 1.592199951E+03
 1.354974873E+03	 1.596000000E+03
 1.355508794E+03	 1.594000000E+03
 1.356042660E+03	 1.594599976E+03
 1.356576469E+03	 1.589800049E+03
 1.357110222E+03	 1.593599976E+03
 1.357643920E+03	 1.589400024E+03
 1.358177561E+03	 1.583400024E+03
 1.358711147E+03	 1.588599976E+03
 1.359244677E+03	 1.589599976E+03
 1.359778151E+03	 1.596800049E+03
 1.360311569E+03	 1.595800049E+03
 1.360844931E+03	 1.588199951E+03
 1.361378237E+03	 1.580199951E+03
 1.361911487E+03	 1.569000000E+03
 1.362444682E+03	 1.592000000E+03
 1.362977820E+03	 1.588800049E+03
 1.363510903E+03	 1.590199951E+03
 1.364043929E+03	 1.592400024E+03
 1.364576900E+03	 1.568599976E+03
 1.365109815E+03	 1.582000000E+03
 1.365642674E+03	 1.573400024E+03
 1.366175478E+03	 1.579199951E+03
 1.366708225E+03	 1.573400024E+03
 1.367240917E+03	 1.568800049E+03
 1.367773552E+03	 1.571400024E+03
 1.368306132E+03	 1.588199951E+03
 1.368838656E+03	 1.580400024E+03
 1.369371124E+03	 1.570599976E+03
 1.369903537E+03	 1.566599976E+03
 1.370435893E+03	 1.580800049E+03
 1.370968194E+03	 1.572400024E+03
 1.371500439E+03	 1.576400024E+03
 1.372032628E+03	 1.583000000E+03
 1.372564761E+03	 1.572199951E+03
 1.373096838E+03	 1.586199951E+03
 1.373628860E+03	 1.560800049E+03
 1.374160826E+03	 1.559400024E+03
 1.374692736E+03	 1.554199951E+03
 1.375224590E+03	 1.582000000E+03
 1.375756388E+03	 1.566400024E+03
 1.376288131E+03	 1.580599976E+03
 1.376819818E+03	 1.559800049E+03
 1.377351449E+03	 1.558400024E+03
 1.377883024E+03	 1.562000000E+03
 1.378414544E+03	 1.571800049E+03
 1.378946008E+03	 1.546199951E+03
 1.379477416E+03	 1.571800049E+03
 1.380008768E+03	 1.558199951E+03
 1.380540064E+03	 1.567400024E+03
 1.381071305E+03	 1.547000000E+03
 1.381602490E+03	 1.554400024E+03
 1.382133619E+03	 1.555000000E+03
 1.382664693E+03	 1.570400024E+03
 1.383195711E+03	 1.558199951E+03
 1.383726673E+03	 1.556400024E+03
 1.384257579E+03	 1.569199951E+03
 1.384788430E+03	 1.543400024E+03
 1.385319224E+03	 1.554199951E+03
 1.385849964E+03	 1.556800049E+03
 1.386380647E+03	 1.550400024E+03
 1.386911275E+03	 1.554800049E+03
 1.387441847E+03	 1.564400024E+03
 1.387972363E+03	 1.629599976E+03
 1.388502824E+03	 1.849400024E+03
 1.389033229E+03	 1.685000000E+03
 1.389563578E+03	 1.558599976E+03
 1.390093872E+03	 1.548400024E+03
 1.390624110E+03	 1.543599976E+03
 1.391154292E+03	 1.546800049E+03
 1.391684419E+03	 1.549400024E+03
 1.392214489E+03	 1.552000000E+03
 1.392744505E+03	 1.531599976E+03
 1.393274464E+03	 1.545199951E+03
 1.393804368E+03	 1.547400024E+03
 1.394334216E+03	 1.555000000E+03
 1.394864009E+03	 1.542400024E+03
 1.395393746E+03	 1.554400024E+03
 1.395923427E+03	 1.541800049E+03
 1.396453053E+03	 1.529800049E+03
 1.396982623E+03	 1.550199951E+03
 1.397512138E+03	 1.552000000E+03
 1.398041597E+03	 1.529400024E+03
 1.398571000E+03	 1.547199951E+03
 1.399100347E+03	 1.542599976E+03
 1.399629639E+03	 1.541800049E+03
 1.400158876E+03	 1.533800049E+03
 1.400688056E+03	 1.545000000E+03
 1.401217182E+03	 1.528599976E+03
 1.401746251E+03	 1.535199951E+03
 1.402275265E+03	 1.520400024E+03
 1.402804224E+03	 1.531599976E+03
 1.403333126E+03	 1.535800049E+03
 1.403861974E+03	 1.524000000E+03
 1.404390765E+03	 1.538599976E+03
 1.404919501E+03	 1.537199951E+03
 1.405448182E+03	 1.539800049E+03
 1.405976807E+03	 1.532800049E+03
 1.406505376E+03	 1.537800049E+03
 1.407033890E+03	 1.521199951E+03
 1.407562349E+03	 1.536199951E+03
 1.408090751E+03	 1.528199951E+03
 1.408619098E+03	 1.508199951E+03
 1.409147390E+03	 1.532400024E+03
 1.409675626E+03	 1.529599976E+03
 1.410203807E+03	 1.545800049E+03
 1.410731932E+03	 1.530000000E+03
 1.411260001E+03	 1.528599976E+03
 1.411788015E+03	 1.535000000E+03
 1.412315974E+03	 1.514400024E+03
 1.412843877E+03	 1.512800049E+03
 1.413371725E+03	 1.520400024E+03
 1.413899516E+03	 1.522199951E+03
 1.414427253E+03	 1.523800049E+03
 1.414954934E+03	 1.518199951E+03
 1.415482559E+03	 1.528599976E+03
 1.416010129E+03	 1.507000000E+03
 1.416537644E+03	 1.517400024E+03
 1.417065103E+03	 1.500000000E+03
 1.417592507E+03	 1.518800049E+03
 1.418119855E+03	 1.522000000E+03
 1.418647147E+03	 1.511199951E+03
 1.419174385E+03	 1.511000000E+03
 1.419701566E+03	 1.505400024E+03
 1.420228692E+03	 1.525800049E+03
 1.420755763E+03	 1.516800049E+03
 1.421282779E+03	 1.513400024E+03
 1.421809739E+03	 1.509199951E+03
 1.422336643E+03	 1.513199951E+03
 1.422863492E+03	 1.530199951E+03
 1.423390286E+03	 1.502800049E+03
 1.423917024E+03	 1.501000000E+03
 1.424443707E+03	 1.513599976E+03
 1.424970334E+03	 1.500400024E+03
 1.425496906E+03	 1.499800049E+03
 1.426023422E+03	 1.511400024E+03
 1.426549883E+03	 1.514000000E+03
 1.427076289E+03	 1.500800049E+03
 1.427602639E+03	 1.503199951E+03
 1.428128934E+03	 1.510000000E+03
 1.428655174E+03	 1.504400024E+03
 1.429181358E+03	 1.511800049E+03
 1.429707486E+03	 1.499800049E+03
 1.430233560E+03	 1.491800049E+03
 1.430759578E+03	 1.500400024E+03
 1.431285540E+03	 1.501599976E+03
 1.431811448E+03	 1.491400024E+03
 1.432337299E+03	 1.497599976E+03
 1.432863096E+03	 1.503599976E+03
 1.433388837E+03	 1.500000000E+03
 1.433914523E+03	 1.484199951E+03
 1.434440153E+03	 1.493199951E+03
 1.434965728E+03	 1.503400024E+03
 1.435491248E+03	 1.488199951E+03
 1.436016712E+03	 1.515400024E+03
 1.436542122E+03	 1.470800049E+03
 1.437067475E+03	 1.496800049E+03
 1.437592774E+03	 1.492400024E+03
 1.438118017E+03	 1.490000000E+03
 1.438643205E+03	 1.494400024E+03
 1.439168337E+03	 1.498800049E+03
 1.439693414E+03	 1.491199951E+03
 1.440218436E+03	 1.477400024E+03
 1.440743403E+03	 1.474000000E+03
 1.441268314E+03	 1.482599976E+03
 1.441793170E+03	 1.495000000E+03
 1.442317970E+03	 1.495199951E+03
 1.442842716E+03	 1.479000000E+03
 1.443367406E+03	 1.476599976E+03
 1.443892041E+03	 1.487000000E+03
 1.444416620E+03	 1.480199951E+03
 1.444941145E+03	 1.485000000E+03
 1.445465614E+03	 1.464800049E+03
 1.445990027E+03	 1.476599976E+03
 1.446514386E+03	 1.475800049E+03
 1.447038689E+03	 1.488800049E+03
 1.447562937E+03	 1.492199951E+03
 1.448087130E+03	 1.493199951E+03
 1.448611267E+03	 1.476000000E+03
 1.449135350E+03	 1.472199951E+03
 1.449659377E+03	 1.482599976E+03
 1.450183348E+03	 1.467000000E+03
 1.450707265E+03	 1.485800049E+03
 1.451231126E+03	 1.465000000E+03
 1.451754932E+03	 1.470599976E+03
 1.452278683E+03	 1.477599976E+03
 1.452802379E+03	 1.454800049E+03
 1.453326020E+03	 1.467400024E+03
 1.453849605E+03	 1.482199951E+03
 1.454373135E+03	 1.472599976E+03
 1.454896610E+03	 1.462599976E+03
 1.455420030E+03	 1.467199951E+03
 1.455943394E+03	 1.475599976E+03
 1.456466703E+03	 1.462599976E+03
 1.456989958E+03	 1.453599976E+03
 1.457513157E+03	 1.478199951E+03
 1.458036300E+03	 1.463000000E+03
 1.458559389E+03	 1.452800049E+03
 1.459082423E+03	 1.459000000E+03
 1.459605401E+03	 1.466599976E+03
 1.460128324E+03	 1.454800049E+03
 1.460651192E+03	 1.457599976E+03
 1.461174005E+03	 1.451000000E+03
 1.461696763E+03	 1.461800049E+03
 1.462219465E+03	 1.454800049E+03
 1.462742113E+03	 1.466400024E+03
 1.463264705E+03	 1.459800049E+03
 1.463787242E+03	 1.460800049E+03
 1.464309724E+03	 1.451199951E+03
 1.464832151E+03	 1.444400024E+03
 1.465354523E+03	 1.458199951E+03
 1.465876840E+03	 1.468000000E+03
 1.466399102E+03	 1.449199951E+03
 1.466921308E+03	 1.453400024E+03
 1.467443459E+03	 1.446000000E+03
 1.467965556E+03	 1.437800049E+03
 1.468487597E+03	 1.446800049E+03
 1.469009583E+03	 1.447599976E+03
 1.469531514E+03	 1.460199951E+03
 1.470053390E+03	 1.426000000E+03
 1.470575211E+03	 1.444800049E+03
 1.471096977E+03	 1.452400024E+03
 1.471618688E+03	 1.444400024E+03
 1.472140343E+03	 1.453400024E+03
 1.472661944E+03	 1.433599976E+03
 1.473183490E+03	 1.445400024E+03
 1.473704980E+03	 1.451400024E+03
 1.474226416E+03	 1.446800049E+03
 1.474747796E+03	 1.430199951E+03
 1.475269122E+03	 1.441000000E+03
 1.475790392E+03	 1.447199951E+03
 1.476311607E+03	 1.433400024E+03
 1.476832768E+03	 1.438800049E+03
 1.477353873E+03	 1.428599976E+03
 1.477874923E+03	 1.462199951E+03
 1.478395918E+03	 1.448199951E+03
 1.478916859E+03	 1.447599976E+03
 1.479437744E+03	 1.433599976E+03
 1.479958574E+03	 1.423800049E+03
 1.480479349E+03	 1.423599976E+03
 1.481000070E+03	 1.429199951E+03
 1.481520735E+03	 1.440000000E+03
 1.482041345E+03	 1.424800049E+03
 1.482561900E+03	 1.420599976E+03
 1.483082401E+03	 1.427800049E+03
 1.483602846E+03	 1.435400024E+03
 1.484123236E+03	 1.440199951E+03
 1.484643572E+03	 1.424599976E+03
 1.485163852E+03	 1.421800049E+03
 1.485684077E+03	 1.419400024E+03
 1.486204248E+03	 1.430800049E+03
 1.486724363E+03	 1.430000000E+03
 1.487244424E+03	 1.431199951E+03
 1.487764430E+03	 1.420599976E+03
 1.488284380E+03	 1.415400024E+03
 1.488804276E+03	 1.416400024E+03
 1.489324117E+03	 1.413800049E+03
 1.489843903E+03	 1.415800049E+03
 1.490363634E+03	 1.433599976E+03
 1.490883310E+03	 1.430800049E+03
 1.491402931E+03	 1.417199951E+03
 1.491922497E+03	 1.416800049E+03
 1.492442008E+03	 1.425599976E+03
 1.492961465E+03	 1.409800049E+03
 1.493480866E+03	 1.412599976E+03
 1.494000213E+03	 1.410199951E+03
 1.494519505E+03	 1.406599976E+03
 1.495038741E+03	 1.401800049E+03
 1.495557923E+03	 1.402400024E+03
 1.496077050E+03	 1.406199951E+03
 1.496596122E+03	 1.422599976E+03
 1.497115140E+03	 1.425000000E+03
 1.497634102E+03	 1.406400024E+03
 1.498153010E+03	 1.415400024E+03
 1.498671862E+03	 1.419599976E+03
 1.499190660E+03	 1.407599976E+03
 1.499709403E+03	 1.427400024E+03
 1.500228091E+03	 1.400400024E+03
 1.500746725E+03	 1.412800049E+03
 1.501265303E+03	 1.396000000E+03
 1.501783827E+03	 1.402800049E+03
 1.502302296E+03	 1.398599976E+03
 1.502820709E+03	 1.405000000E+03
 1.503339069E+03	 1.407800049E+03
 1.503857373E+03	 1.422400024E+03
 1.504375622E+03	 1.398400024E+03
 1.504893817E+03	 1.408199951E+03
 1.505411957E+03	 1.405199951E+03
 1.505930042E+03	 1.396599976E+03
 1.506448072E+03	 1.410800049E+03
 1.506966048E+03	 1.395199951E+03
 1.507483968E+03	 1.404599976E+03
 1.508001834E+03	 1.394800049E+03
 1.508519645E+03	 1.385400024E+03
 1.509037401E+03	 1.390599976E+03
 1.509555103E+03	 1.399599976E+03
 1.510072750E+03	 1.390199951E+03
 1.510590342E+03	 1.407599976E+03
 1.511107879E+03	 1.389800049E+03
 1.511625361E+03	 1.393199951E+03
 1.512142789E+03	 1.398599976E+03
 1.512660162E+03	 1.388599976E+03
 1.513177480E+03	 1.388199951E+03
 1.513694743E+03	 1.389199951E+03
 1.514211952E+03	 1.385199951E+03
 1.514729106E+03	 1.389000000E+03
 1.515246205E+03	 1.392599976E+03
 1.515763250E+03	 1.389000000E+03
 1.516280239E+03	 1.396599976E+03
 1.516797174E+03	 1.395000000E+03
 1.517314055E+03	 1.385400024E+03
 1.517830880E+03	 1.381800049E+03
 1.518347651E+03	 1.392800049E+03
 1.518864367E+03	 1.382000000E+03
 1.519381029E+03	 1.390400024E+03
 1.519897635E+03	 1.382199951E+03
 1.520414187E+03	 1.372599976E+03
 1.520930685E+03	 1.388199951E+03
 1.521447127E+03	 1.375400024E+03
 1.521963515E+03	 1.371199951E+03
 1.522479849E+03	 1.391199951E+03
 1.522996127E+03	 1.392400024E+03
 1.523512351E+03	 1.396199951E+03
 1.524028521E+03	 1.365400024E+03
 1.524544635E+03	 1.386400024E+03
 1.525060695E+03	 1.375000000E+03
 1.525576701E+03	 1.393800049E+03
 1.526092651E+03	 1.376400024E+03
 1.526608547E+03	 1.383800049E+03
 1.527124389E+03	 1.378400024E+03
 1.527640175E+03	 1.384199951E+03
 1.528155907E+03	 1.371599976E+03
 1.528671585E+03	 1.391000000E+03
 1.529187208E+03	 1.372000000E+03
 1.529702776E+03	 1.371199951E+03
 1.530218289E+03	 1.362000000E+03
 1.530733748E+03	 1.376199951E+03
 1.531249153E+03	 1.389400024E+03
 1.531764502E+03	 1.367199951E+03
 1.532279798E+03	 1.374800049E+03
 1.532795038E+03	 1.367800049E+03
 1.533310224E+03	 1.374400024E+03
 1.533825355E+03	 1.368800049E+03
 1.534340432E+03	 1.375400024E+03
 1.534855454E+03	 1.367800049E+03
 1.535370422E+03	 1.373400024E+03
 1.535885335E+03	 1.386199951E+03
 1.536400193E+03	 1.372599976E+03
 1.536914997E+03	 1.376000000E+03
 1.537429746E+03	 1.361199951E+03
 1.537944441E+03	 1.345599976E+03
 1.538459081E+03	 1.381599976E+03
 1.538973667E+03	 1.359400024E+03
 1.539488198E+03	 1.363199951E+03
 1.540002674E+03	 1.376800049E+03
 1.540517096E+03	 1.371800049E+03
 1.541031464E+03	 1.377800049E+03
 1.541545777E+03	 1.371000000E+03
 1.542060035E+03	 1.362199951E+03
 1.542574239E+03	 1.387800049E+03
 1.543088388E+03	 1.368599976E+03
 1.543602483E+03	 1.362400024E+03
 1.544116523E+03	 1.356400024E+03
 1.544630509E+03	 1.363800049E+03
 1.545144440E+03	 1.374800049E+03
 1.545658317E+03	 1.378800049E+03
 1.546172139E+03	 1.362199951E+03
 1.546685907E+03	 1.353000000E+03
 1.547199620E+03	 1.364800049E+03
 1.547713279E+03	 1.350000000E+03
 1.548226883E+03	 1.365400024E+03
 1.548740433E+03	 1.357199951E+03
 1.549253929E+03	 1.373199951E+03
 1.549767370E+03	 1.366800049E+03
 1.550280756E+03	 1.362199951E+03
 1.550794088E+03	 1.367000000E+03
 1.551307365E+03	 1.351599976E+03
 1.551820588E+03	 1.369599976E+03
 1.552333757E+03	 1.356000000E+03
 1.552846871E+03	 1.360599976E+03
 1.553359931E+03	 1.363000000E+03
 1.553872936E+03	 1.370400024E+03
 1.554385887E+03	 1.371400024E+03
 1.554898783E+03	 1.372199951E+03
 1.555411625E+03	 1.345800049E+03
 1.555924413E+03	 1.362199951E+03
 1.556437146E+03	 1.349599976E+03
 1.556949824E+03	 1.352000000E+03
 1.557462449E+03	 1.361199951E+03
 1.557975019E+03	 1.361800049E+03
 1.558487534E+03	 1.351800049E+03
 1.558999995E+03	 1.354400024E+03
 1.559512402E+03	 1.346000000E+03
 1.560024754E+03	 1.365199951E+03
 1.560537052E+03	 1.388199951E+03
 1.561049295E+03	 1.360599976E+03
 1.561561485E+03	 1.363599976E+03
 1.562073619E+03	 1.350000000E+03
 1.562585700E+03	 1.352800049E+03
 1.563097726E+03	 1.355000000E+03
 1.563609697E+03	 1.338599976E+03
 1.564121615E+03	 1.353800049E+03
 1.564633477E+03	 1.358000000E+03
 1.565145286E+03	 1.344400024E+03
 1.565657040E+03	 1.349199951E+03
 1.566168740E+03	 1.360800049E+03
 1.566680386E+03	 1.354000000E+03
 1.567191977E+03	 1.352000000E+03
 1.567703514E+03	 1.336800049E+03
 1.568214996E+03	 1.354800049E+03
 1.568726424E+03	 1.356800049E+03
 1.569237798E+03	 1.332599976E+03
 1.569749118E+03	 1.350599976E+03
 1.570260383E+03	 1.347400024E+03
 1.570771594E+03	 1.354800049E+03
 1.571282750E+03	 1.345000000E+03
 1.571793853E+03	 1.351199951E+03
 1.572304901E+03	 1.353400024E+03
 1.572815895E+03	 1.349599976E+03
 1.573326834E+03	 1.347400024E+03
 1.573837719E+03	 1.346000000E+03
 1.574348550E+03	 1.332400024E+03
 1.574859327E+03	 1.336800049E+03
 1.575370049E+03	 1.358400024E+03
 1.575880717E+03	 1.345199951E+03
 1.576391331E+03	 1.339599976E+03
 1.576901890E+03	 1.335000000E+03
 1.577412395E+03	 1.349400024E+03
 1.577922846E+03	 1.339199951E+03
 1.578433243E+03	 1.356199951E+03
 1.578943586E+03	 1.332800049E+03
 1.579453874E+03	 1.344400024E+03
 1.579964108E+03	 1.340800049E+03
 1.580474288E+03	 1.338800049E+03
 1.580984413E+03	 1.342800049E+03
 1.581494484E+03	 1.326199951E+03
 1.582004501E+03	 1.327199951E+03
 1.582514464E+03	 1.330800049E+03
 1.583024373E+03	 1.316000000E+03
 1.583534227E+03	 1.331800049E+03
 1.584044028E+03	 1.332599976E+03
 1.584553774E+03	 1.330199951E+03
 1.585063465E+03	 1.332199951E+03
 1.585573103E+03	 1.347599976E+03
 1.586082687E+03	 1.323800049E+03
 1.586592216E+03	 1.348800049E+03
 1.587101691E+03	 1.314800049E+03
 1.587611112E+03	 1.337000000E+03
 1.588120478E+03	 1.327800049E+03
 1.588629791E+03	 1.332400024E+03
 1.589139049E+03	 1.324000000E+03
 1.589648253E+03	 1.337199951E+03
 1.590157403E+03	 1.334000000E+03
 1.590666499E+03	 1.324199951E+03
 1.591175541E+03	 1.331599976E+03
 1.591684529E+03	 1.336599976E+03
 1.592193462E+03	 1.335800049E+03
