1043.678594	1286.199951
1044.244816	1288.0
1044.810979	1292.599976
1045.377084	1284.599976
1045.943132	1285.800049
1046.509121	1288.400024
1047.075052	1276.199951
1047.640924	1276.800049
1048.206739	1277.0
1048.772495	1275.199951
1049.338193	1265.599976
1049.903833	1279.800049
1050.469415	1273.800049
1051.034939	1266.199951
1051.600404	1269.0
1052.165811	1280.599976
1052.731161	1267.599976
1053.296452	1259.0
1053.861685	1273.599976
1054.426859	1262.0
1054.991976	1270.0
1055.557035	1268.199951
1056.122035	1265.800049
1056.686978	1253.599976
1057.251862	1258.800049
1057.816688	1261.199951
1058.381456	1261.0
1058.946166	1270.0
1059.510818	1266.400024
1060.075411	1271.800049
1060.639947	1257.199951
1061.204425	1264.199951
1061.768844	1252.800049
1062.333206	1257.0
1062.897509	1259.800049
1063.461754	1244.400024
1064.025942	1260.0
1064.590071	1253.400024
1065.154142	1254.400024
1065.718155	1262.199951
1066.28211	1257.199951
1066.846007	1247.199951
1067.409846	1254.0
1067.973627	1254.400024
1068.53735	1254.0
1069.101014	1247.400024
1069.664621	1258.800049
1070.22817	1255.199951
1070.791661	1246.0
1071.355094	1236.0
1071.918469	1252.0
1072.481785	1243.0
1073.045044	1243.599976
1073.608245	1243.0
1074.171388	1251.0
1074.734473	1247.199951
1075.297499	1250.599976
1075.860468	1257.599976
1076.423379	1236.0
1076.986232	1242.400024
1077.549027	1248.599976
1078.111764	1235.800049
1078.674443	1248.199951
1079.237064	1234.800049
1079.799627	1243.199951
1080.362132	1242.0
1080.92458	1229.0
1081.486969	1235.400024
1082.0493	1245.800049
1082.611574	1236.199951
1083.173789	1227.599976
1083.735947	1225.0
1084.298047	1239.800049
1084.860088	1232.800049
1085.422072	1223.199951
1085.983998	1231.199951
1086.545866	1215.0
1087.107677	1227.599976
1087.669429	1235.199951
1088.231123	1237.0
1088.79276	1230.400024
1089.354338	1222.400024
1089.915859	1221.800049
1090.477322	1216.599976
1091.038727	1234.800049
1091.600074	1217.0
1092.161363	1235.0
1092.722595	1210.199951
1093.283768	1227.599976
1093.844884	1212.800049
1094.405942	1223.800049
1094.966942	1216.800049
1095.527884	1227.400024
1096.088768	1232.0
1096.649595	1209.800049
1097.210364	1222.400024
1097.771074	1216.599976
1098.331728	1218.800049
1098.892323	1221.199951
1099.45286	1210.199951
1100.01334	1220.800049
1100.573762	1226.400024
1101.134126	1212.599976
1101.694432	1198.800049
1102.25468	1213.0
1102.814871	1213.199951
1103.375004	1212.599976
1103.935079	1214.0
1104.495096	1218.400024
1105.055056	1213.199951
1105.614958	1202.800049
1106.174802	1203.0
1106.734588	1203.199951
1107.294317	1217.0
1107.853987	1212.0
1108.4136	1207.400024
1108.973156	1193.199951
1109.532653	1191.199951
1110.092093	1206.199951
1110.651475	1195.800049
1111.2108	1194.800049
1111.770066	1202.400024
1112.329275	1190.0
1112.888426	1190.400024
1113.44752	1199.199951
1114.006556	1193.800049
1114.565534	1189.599976
1115.124454	1197.800049
1115.683317	1191.400024
1116.242122	1197.0
1116.800869	1212.199951
1117.359559	1195.400024
1117.918191	1198.800049
1118.476765	1187.0
1119.035282	1188.800049
1119.593741	1186.800049
1120.152142	1196.800049
1120.710486	1198.199951
1121.268772	1195.800049
1121.827	1197.800049
1122.385171	1189.199951
1122.943284	1187.400024
1123.50134	1190.599976
1124.059337	1182.0
1124.617277	1178.400024
1125.17516	1177.400024
1125.732985	1194.400024
1126.290752	1187.199951
1126.848462	1200.199951
1127.406114	1174.199951
1127.963709	1176.599976
1128.521245	1200.199951
1129.078725	1187.400024
1129.636146	1185.800049
1130.193511	1185.400024
1130.750817	1179.800049
1131.308066	1185.800049
1131.865257	1175.599976
1132.422391	1187.0
1132.979467	1184.199951
1133.536486	1180.0
1134.093447	1180.800049
1134.650351	1180.0
1135.207197	1174.599976
1135.763985	1181.199951
1136.320716	1183.0
1136.877389	1181.800049
1137.434005	1188.599976
1137.990563	1184.400024
1138.547064	1184.800049
1139.103507	1171.0
1139.659893	1182.400024
1140.216221	1177.199951
1140.772492	1183.800049
1141.328705	1176.0
1141.884861	1177.0
1142.440959	1186.400024
1142.997	1186.599976
1143.552983	1187.400024
1144.108908	1179.800049
1144.664777	1182.199951
1145.220587	1177.400024
1145.776341	1179.0
1146.332036	1185.599976
1147.443256	1192.800049
1147.998779	1175.400024
1148.554245	1174.400024
1149.109653	1191.800049
1149.665004	1175.0
1150.220298	1187.0
1150.775534	1190.0
1151.330713	1190.0
1151.885834	1181.599976
1152.440898	1179.599976
1152.995904	1179.199951
1153.550853	1173.400024
1154.105745	1177.400024
1154.660579	1172.800049
1155.215356	1172.400024
1155.770075	1183.800049
1156.324737	1180.599976
1156.879341	1171.0
1157.433889	1173.599976
1157.988378	1169.0
1158.542811	1169.599976
1159.097186	1173.199951
1159.651503	1178.400024
1160.205764	1167.400024
1160.759966	1179.599976
1161.314112	1182.800049
1161.8682	1171.800049
1162.422231	1178.0
1162.976204	1164.199951
1163.53012	1162.800049
1164.083979	1168.199951
1164.637781	1157.400024
1165.191525	1176.0
1165.745211	1167.199951
1166.298841	1173.0
1166.852413	1170.800049
1167.405928	1170.400024
1167.959385	1175.199951
1168.512785	1173.800049
1169.066128	1169.0
1169.619413	1165.400024
1170.172642	1167.0
1170.725813	1175.599976
1171.278926	1178.800049
1171.831983	1157.0
1172.384982	1167.599976
1172.937923	1156.599976
1173.490808	1162.599976
1174.043635	1155.599976
1174.596405	1158.800049
1175.149118	1159.400024
1175.701773	1164.400024
1176.254371	1172.199951
1176.806912	1171.199951
1177.359396	1159.0
1177.911822	1164.599976
1178.464192	1170.599976
1179.016503	1161.599976
1179.568758	1161.0
1180.120956	1171.599976
1180.673096	1172.199951
1181.225179	1166.400024
1181.777205	1165.199951
1182.329173	1166.199951
1182.881085	1155.599976
1183.432939	1150.400024
1183.984736	1156.800049
1184.536476	1170.199951
1185.088158	1151.800049
1185.639784	1153.800049
1186.191352	1176.199951
1186.742863	1164.199951
1187.294317	1143.400024
1187.845713	1154.599976
1188.397053	1146.800049
1188.948335	1149.599976
1189.499561	1167.599976
1190.050729	1163.599976
1190.601839	1151.800049
1191.152893	1151.199951
1191.70389	1145.0
1192.254829	1157.599976
1192.805712	1155.800049
1193.356537	1163.599976
1193.907305	1155.800049
1194.458016	1152.400024
1195.00867	1147.199951
1195.559266	1146.599976
1196.109806	1151.0
1196.660288	1156.599976
1197.210714	1153.199951
1197.761082	1158.199951
1198.311393	1156.800049
1198.861647	1140.599976
1199.411844	1146.0
1199.961984	1150.400024
1200.512067	1149.599976
1201.062092	1146.599976
1201.612061	1158.800049
1202.161973	1139.599976
1202.711827	1148.800049
1203.261625	1148.800049
1203.811365	1141.400024
1204.361048	1157.199951
1204.910675	1160.400024
1205.460244	1144.199951
1206.009756	1142.400024
1206.559211	1147.400024
1207.10861	1137.800049
1207.657951	1139.400024
1208.207235	1140.0
1208.756462	1139.199951
1209.305632	1142.800049
1209.854745	1137.800049
1210.403801	1142.0
1210.9528	1135.599976
1211.501742	1146.0
1212.050627	1136.400024
1212.599455	1138.400024
1213.148226	1146.199951
1213.69694	1140.599976
1214.245597	1143.199951
1214.794197	1139.800049
1215.34274	1135.800049
1215.891227	1129.400024
1216.439656	1143.199951
1216.988028	1129.800049
1217.536343	1133.599976
1218.084602	1133.400024
1218.632803	1144.400024
1219.180947	1132.0
1219.729035	1125.199951
1220.277065	1138.0
1220.825039	1129.0
1221.372956	1134.199951
1221.920815	1136.0
1222.468618	1137.800049
1223.016364	1117.0
1223.564053	1139.599976
1224.111685	1126.0
1224.65926	1137.199951
1225.206779	1129.599976
1225.75424	1143.400024
1226.301645	1129.800049
1226.848992	1115.199951
1227.943517	1120.800049
1228.490694	1135.800049
1229.037814	1138.0
1229.584877	1119.199951
1230.131883	1131.199951
1230.678833	1119.199951
1231.225725	1116.400024
1231.772561	1135.800049
1232.31934	1127.400024
1232.866062	1117.0
1233.412727	1121.400024
1233.959336	1127.599976
1234.505887	1135.599976
1235.052382	1121.599976
1235.59882	1120.599976
1236.145201	1131.599976
1236.691525	1123.599976
1237.237793	1122.0
1237.784003	1118.400024
1238.330157	1130.0
1238.876254	1123.0
1239.422295	1107.400024
1239.968278	1125.400024
1240.514205	1124.199951
1241.060074	1122.199951
1241.605888	1125.800049
1242.151644	1117.400024
1242.697343	1119.199951
1243.242986	1121.400024
1243.788572	1124.800049
1244.334101	1120.199951
1244.879574	1121.0
1245.42499	1125.800049
1245.970349	1127.199951
1246.515651	1119.599976
1247.060896	1122.199951
1247.606085	1118.599976
1248.151217	1112.800049
1248.696292	1110.0
1249.241311	1114.400024
1249.786273	1116.199951
1250.331178	1126.400024
1250.876026	1125.199951
1251.420818	1119.400024
1251.965553	1118.800049
1252.510231	1130.400024
1253.054853	1124.599976
1253.599418	1118.800049
1254.143926	1113.0
1254.688377	1127.800049
1255.232772	1109.400024
1255.77711	1113.599976
1256.321392	1119.800049
1256.865617	1112.800049
1257.409785	1107.599976
1257.953896	1107.400024
1258.497951	1109.0
1259.041949	1112.800049
1259.585891	1103.800049
1260.129776	1116.0
1260.673604	1117.599976
1261.217375	1113.599976
1261.76109	1114.0
1262.304749	1117.599976
1262.84835	1107.599976
1263.391896	1115.199951
1263.935384	1101.599976
1264.478816	1105.800049
1265.022191	1117.400024
1265.56551	1122.400024
1266.108772	1110.199951
1266.651977	1098.400024
1267.195126	1106.599976
1267.738218	1106.199951
1268.281254	1121.199951
1268.824233	1102.0
1269.367155	1108.0
1269.910021	1100.0
1270.452831	1114.599976
1270.995583	1090.800049
1271.53828	1111.199951
1272.080919	1109.599976
1272.623502	1110.0
1273.166029	1110.800049
1273.708499	1107.199951
1274.250912	1107.400024
1274.793269	1119.800049
1275.33557	1102.599976
1275.877814	1109.199951
1276.420001	1107.199951
1276.962132	1091.0
1277.504206	1090.599976
1278.046224	1101.599976
1278.588185	1099.199951
1279.13009	1095.800049
1279.671938	1099.400024
1280.21373	1108.599976
1280.755465	1107.599976
1281.297144	1093.199951
1281.838766	1095.400024
1282.380332	1104.800049
1282.921841	1098.599976
1283.463294	1110.400024
1284.004691	1110.0
1284.546031	1103.0
1285.087314	1153.0
1285.628541	1340.199951
1286.169711	1238.400024
1286.710826	1116.800049
1287.251883	1097.599976
1287.792884	1090.599976
1288.333829	1103.199951
1288.874717	1093.400024
1289.415549	1106.199951
1289.956325	1103.0
1290.497044	1094.400024
1291.037706	1089.800049
1291.578313	1091.800049
1292.118862	1099.0
1292.659356	1097.199951
1293.199793	1089.199951
1293.740173	1086.800049
1294.280498	1092.199951
1294.820765	1105.599976
1295.360977	1092.199951
1295.901132	1078.599976
1296.44123	1088.199951
1296.981273	1077.800049
1297.521259	1088.400024
1298.061188	1087.400024
1298.601061	1085.0
1299.140878	1083.599976
1299.680639	1097.0
1300.220343	1085.800049
1300.75999	1099.0
1301.299582	1082.400024
1301.839117	1085.599976
1302.378596	1099.199951
1302.918018	1082.599976
1303.457384	1079.199951
1303.996694	1090.800049
1304.535947	1077.199951
1305.075145	1082.400024
1305.614285	1083.199951
1306.15337	1082.800049
1306.692398	1086.0
1307.23137	1082.800049
1307.770286	1085.400024
1308.309145	1082.199951
1308.847948	1079.0
1309.386695	1078.199951
1309.925385	1083.199951
1310.464019	1080.199951
1311.002597	1090.400024
1311.541119	1078.800049
1312.079584	1086.199951
1312.617993	1073.199951
1313.156346	1087.199951
1313.694643	1080.800049
1314.232883	1085.199951
1314.771067	1071.199951
1315.309195	1073.400024
1315.847267	1076.800049
1316.385282	1081.199951
1316.923241	1076.400024
1317.461144	1069.800049
1317.998991	1075.800049
1318.536782	1083.199951
1319.074516	1087.400024
1319.612194	1081.599976
1320.149816	1076.400024
1320.687382	1069.800049
1321.224891	1088.400024
1321.762344	1066.400024
1322.299742	1070.800049
1322.837083	1064.199951
1323.374367	1070.599976
1323.911596	1077.800049
1324.448768	1067.400024
1324.985885	1072.199951
1325.522945	1081.199951
1326.059949	1068.400024
1326.596896	1069.800049
1327.133788	1074.400024
1327.670623	1082.599976
1328.207403	1085.400024
1328.744126	1081.0
1329.280793	1060.599976
1329.817404	1075.800049
1330.353959	1070.599976
1330.890457	1074.0
1331.4269	1071.199951
1331.963286	1057.0
1332.499617	1081.800049
1333.035891	1079.0
1333.572109	1069.199951
1334.108271	1073.0
1334.644377	1066.800049
1335.180427	1076.199951
1335.71642	1070.599976
1336.252358	1067.800049
1336.78824	1075.599976
1337.324065	1079.199951
1337.859834	1065.599976
1338.395548	1070.800049
1338.931205	1073.400024
1339.466806	1067.800049
1340.002351	1054.800049
1340.537841	1067.199951
1341.073274	1054.800049
1341.608651	1072.199951
1342.143972	1064.599976
1342.679236	1067.0
1343.214445	1072.800049
1343.749598	1070.599976
1344.284695	1058.800049
1344.819736	1059.599976
1345.354721	1059.800049
1345.88965	1064.599976
1346.424522	1051.400024
1346.959339	1069.0
1347.4941	1066.400024
1348.028805	1061.199951
1348.563453	1060.599976
1349.098046	1060.0
1349.632583	1048.400024
1350.167064	1058.0
1350.701489	1062.800049
1351.235858	1066.0
1351.770171	1057.599976
1352.304428	1053.0
1352.838629	1063.400024
1353.372774	1060.800049
1353.906863	1059.0
1354.440896	1061.0
1354.974873	1059.800049
1355.508794	1061.199951
1356.04266	1059.599976
1356.576469	1049.199951
1357.110222	1062.599976
1357.64392	1054.400024
1358.177561	1063.400024
1358.711147	1055.400024
1359.244677	1051.199951
1359.778151	1055.0
1360.311569	1059.400024
1360.844931	1055.400024
1361.378237	1051.199951
1361.911487	1053.199951
1362.444682	1056.199951
1362.97782	1051.0
1363.510903	1055.199951
1364.043929	1058.599976
1364.5769	1060.599976
1365.109815	1054.0
1365.642674	1051.400024
1366.175478	1053.400024
1366.708225	1054.199951
1367.240917	1067.199951
1367.773552	1061.0
1368.306132	1059.0
1368.838656	1050.599976
1369.371124	1054.0
1369.903537	1045.199951
1370.435893	1057.0
1370.968194	1059.800049
1371.500439	1053.400024
1372.032628	1052.800049
1372.564761	1045.199951
1373.096838	1045.800049
1373.62886	1048.0
1374.160826	1056.599976
1374.692736	1042.400024
1375.22459	1042.0
1375.756388	1049.400024
1376.288131	1052.0
1376.819818	1058.199951
1377.351449	1039.599976
1377.883024	1045.400024
1378.414544	1048.800049
1378.946008	1039.0
1379.477416	1042.199951
1380.008768	1048.0
1380.540064	1048.199951
1381.071305	1049.599976
1381.60249	1039.400024
1382.133619	1045.199951
1382.664693	1033.400024
1383.195711	1046.199951
1383.726673	1039.0
1384.257579	1051.0
1384.78843	1048.400024
1385.319224	1055.199951
1385.849964	1050.199951
1386.380647	1042.599976
1386.911275	1053.800049
1387.441847	1063.800049
1387.972363	1086.400024
1388.502824	1356.0
1389.033229	1345.599976
1389.563578	1084.400024
1390.093872	1051.199951
1390.62411	1043.599976
1391.154292	1036.400024
1391.684419	1047.400024
1392.214489	1034.0
1392.744505	1038.800049
1393.274464	1045.0
1393.804368	1036.199951
1394.334216	1047.199951
1394.864009	1044.800049
1395.393746	1044.0
1395.923427	1047.400024
1396.453053	1032.599976
1396.982623	1043.199951
1397.512138	1041.800049
1398.041597	1047.400024
1398.571	1052.199951
1399.100347	1032.800049
1399.629639	1030.800049
1400.158876	1037.199951
1400.688056	1032.800049
1401.217182	1042.199951
1401.746251	1040.800049
1402.275265	1031.400024
1402.804224	1043.0
1403.333126	1029.400024
1403.861974	1033.0
1404.390765	1038.400024
1404.919501	1028.199951
1405.448182	1037.800049
1405.976807	1025.599976
1406.505376	1041.400024
1407.03389	1034.800049
1407.562349	1042.599976
1408.090751	1027.800049
1408.619098	1033.0
1409.14739	1036.0
1409.675626	1050.800049
1410.203807	1064.0
1410.731932	1040.400024
1411.260001	1030.0
1411.788015	1035.199951
1412.315974	1040.800049
1412.843877	1030.400024
1413.371725	1037.0
1413.899516	1034.800049
1414.427253	1042.800049
1414.954934	1027.599976
1415.482559	1037.599976
1416.010129	1010.200012
1416.537644	1027.599976
1417.065103	1025.0
1417.592507	1031.400024
1418.119855	1033.599976
1418.647147	1029.0
1419.174385	1035.800049
1419.701566	1020.599976
1420.228692	1024.0
1420.755763	1023.0
1421.282779	1031.599976
1421.809739	1026.800049
1422.336643	1029.199951
1422.863492	1037.199951
1423.390286	1031.599976
1423.917024	1028.800049
1424.443707	1038.199951
1424.970334	1026.400024
1425.496906	1024.400024
1426.023422	1037.199951
1426.549883	1021.799988
1427.076289	1019.200012
1427.602639	1026.400024
1428.128934	1025.800049
1428.655174	1031.0
1429.181358	1035.400024
1429.707486	1020.400024
1430.23356	1022.200012
1430.759578	1026.199951
1431.28554	1020.400024
1431.811448	1023.599976
1432.337299	1026.199951
1432.863096	1016.599976
1433.388837	1034.400024
1433.914523	1020.200012
1434.440153	1013.799988
1434.965728	1018.599976
1435.491248	1019.200012
1436.016712	1026.0
1436.542122	1015.400024
1437.067475	1012.200012
1437.592774	1023.400024
1438.118017	1022.200012
1438.643205	1030.599976
1439.168337	1025.400024
1439.693414	1024.0
1440.218436	1017.400024
1440.743403	1025.0
1441.268314	1026.0
1441.79317	1017.799988
1442.31797	1023.400024
1442.842716	1017.799988
1443.367406	1032.800049
1443.892041	1022.599976
1444.41662	1017.599976
1444.941145	1027.199951
1445.465614	1014.799988
1445.990027	1021.599976
1446.514386	1012.200012
1447.038689	1016.799988
1447.562937	1008.0
1448.08713	1005.200012
1448.611267	1007.599976
1449.13535	1019.599976
1449.659377	1022.599976
1450.183348	1021.0
1450.707265	1007.400024
1451.231126	1018.200012
1451.754932	1005.799988
1452.278683	1005.799988
1452.802379	1020.400024
1453.32602	1008.0
1453.849605	1008.599976
1454.373135	1013.799988
1454.89661	1017.200012
1455.42003	1022.0
1455.943394	1012.0
1456.466703	1012.200012
1456.989958	1008.400024
1457.513157	1014.0
1458.0363	1019.599976
1458.559389	1010.0
1459.082423	1010.799988
1459.605401	1012.200012
1460.128324	1008.599976
1460.651192	1022.400024
1461.174005	1014.400024
1461.696763	1014.200012
1462.219465	1008.400024
1462.742113	1013.200012
1463.264705	1016.200012
1463.787242	1014.200012
1464.309724	997.4000244
1464.832151	1015.0
1465.354523	1011.0
1465.87684	1015.799988
1466.399102	1015.200012
1466.921308	1019.799988
1467.443459	1009.200012
1467.965556	1006.799988
1468.487597	1005.599976
1469.009583	999.5999756
1469.531514	1010.200012
1470.05339	1014.200012
1470.575211	1001.0
1471.096977	1006.200012
1471.618688	1001.599976
1472.140343	1016.599976
1472.661944	1000.200012
1473.18349	1012.400024
1473.70498	1008.799988
1474.226416	1006.799988
1474.747796	1012.200012
1475.269122	990.0
1475.790392	1002.200012
1476.311607	1000.0
1476.832768	1005.200012
1477.353873	1012.0
1477.874923	1000.0
1478.395918	1009.599976
1478.916859	1004.200012
1479.437744	996.0
1479.958574	1007.200012
1480.479349	1004.0
1481.00007	1012.400024
1481.520735	1006.0
1482.041345	1006.400024
1482.5619	1004.200012
1483.082401	996.5999756
1483.602846	1003.599976
1484.123236	994.2000122
1484.643572	1011.599976
1485.163852	1000.599976
1485.684077	993.2000122
1486.204248	1001.0
1486.724363	1001.200012
1487.244424	1005.599976
1487.76443	995.4000244
1488.28438	994.7999878
1488.804276	994.4000244
1489.324117	999.4000244
1489.843903	1000.799988
1490.363634	1000.200012
1490.88331	990.2000122
1491.402931	994.5999756
1491.922497	1003.0
1492.442008	997.2000122
1492.961465	995.0
1493.480866	1002.599976
1494.000213	988.5999756
1494.519505	987.4000244
1495.038741	987.2000122
1495.557923	993.0
1496.07705	993.7999878
1496.596122	990.4000244
1497.11514	990.2000122
1497.634102	995.7999878
1498.15301	1003.599976
1498.671862	991.4000244
1499.19066	985.2000122
1499.709403	1007.599976
1500.228091	988.5999756
1500.746725	993.7999878
1501.265303	989.7999878
1501.783827	998.4000244
1502.302296	986.2000122
1502.820709	986.0
1503.339069	993.2000122
1503.857373	998.5999756
1504.375622	986.7999878
1504.893817	990.7999878
1505.411957	983.7999878
1505.930042	991.4000244
1506.448072	996.5999756
1506.966048	991.2000122
1507.483968	995.7999878
1508.001834	990.7999878
1508.519645	986.7999878
1509.037401	976.0
1509.555103	988.2000122
1510.07275	990.2000122
1510.590342	995.4000244
1511.107879	986.5999756
1511.625361	986.0
1512.142789	987.4000244
1512.660162	984.0
1513.17748	993.4000244
1513.694743	981.7999878
1514.211952	986.0
1514.729106	993.5999756
1515.246205	979.2000122
1515.76325	994.4000244
1516.280239	987.7999878
1516.797174	983.5999756
1517.314055	982.5999756
1517.83088	984.2000122
1518.347651	988.7999878
1518.864367	982.7999878
1519.381029	990.4000244
1519.897635	982.2000122
1520.414187	993.4000244
1520.930685	985.4000244
1521.447127	987.5999756
1521.963515	975.5999756
1522.479849	981.7999878
1522.996127	994.2000122
1523.512351	990.0
1524.028521	994.5999756
1524.544635	985.2000122
1525.060695	974.7999878
1525.576701	983.5999756
1526.092651	987.7999878
1526.608547	984.4000244
1527.124389	984.0
1527.640175	980.2000122
1528.155907	990.4000244
1528.671585	984.5999756
1529.187208	980.4000244
1529.702776	978.7999878
1530.218289	983.7999878
1530.733748	994.7999878
1531.249153	985.5999756
1531.764502	986.0
1532.279798	992.4000244
1532.795038	977.2000122
1533.310224	983.2000122
1533.825355	993.2000122
1534.340432	985.5999756
1534.855454	981.4000244
1535.370422	984.5999756
1535.885335	983.0
1536.400193	982.0
1536.914997	989.7999878
1537.429746	981.4000244
1537.944441	991.4000244
1538.459081	984.7999878
1538.973667	988.5999756
1539.488198	978.7999878
1540.002674	981.4000244
1540.517096	985.5999756
1541.031464	978.2000122
1541.545777	995.0
1542.060035	974.7999878
1542.574239	978.7999878
1543.088388	977.0
1543.602483	989.7999878
1544.116523	993.2000122
1544.630509	970.0
1545.14444	984.2000122
1545.658317	981.7999878
1546.172139	984.4000244
1546.685907	981.4000244
1547.19962	978.2000122
1547.713279	975.4000244
1548.226883	983.0
1548.740433	976.7999878
1549.253929	977.5999756
1549.76737	984.7999878
1550.280756	988.5999756
1550.794088	985.5999756
1551.307365	983.2000122
1551.820588	978.5999756
1552.333757	980.2000122
1552.846871	981.4000244
1553.359931	980.4000244
1553.872936	994.0
1554.385887	982.4000244
1554.898783	980.4000244
1555.411625	977.2000122
1555.924413	978.4000244
1556.437146	971.0
1556.949824	970.2000122
1557.462449	980.2000122
1557.975019	977.4000244
1558.487534	981.4000244
1558.999995	976.7999878
1559.512402	989.7999878
1560.024754	968.4000244
1560.537052	976.0
1561.049295	975.5999756
1561.561485	982.4000244
1562.073619	976.7999878
1562.5857	973.4000244
1563.097726	976.7999878
1563.609697	970.2000122
1564.121615	973.4000244
1564.633477	976.5999756
1565.145286	982.5999756
1565.65704	968.0
1566.16874	974.0
1566.680386	981.2000122
1567.191977	981.0
1567.703514	972.7999878
1568.214996	975.0
1568.726424	976.7999878
1569.237798	974.4000244
1569.749118	977.5999756
1570.260383	988.5999756
1570.771594	973.4000244
1571.28275	969.4000244
1571.793853	979.7999878
1572.304901	978.5999756
1572.815895	981.7999878
1573.326834	979.7999878
1573.837719	967.7999878
1574.34855	975.5999756
1574.859327	967.2000122
1575.370049	974.7999878
1575.880717	973.0
1576.391331	979.4000244
1576.90189	982.0
1577.412395	974.7999878
1577.922846	967.0
1578.433243	966.7999878
1578.943586	969.5999756
1579.453874	971.0
1579.964108	959.4000244
1580.474288	971.0
1580.984413	972.0
1581.494484	975.7999878
1582.004501	972.2000122
1582.514464	961.0
1583.024373	969.4000244
1583.534227	973.4000244
1584.044028	966.4000244
1584.553774	971.0
1585.063465	964.7999878
1585.573103	977.7999878
1586.082687	965.5999756
1586.592216	975.7999878
1587.101691	962.2000122
1587.611112	979.4000244
1588.120478	964.0
1588.629791	973.4000244
1589.139049	970.4000244
1589.648253	970.2000122
1590.157403	973.5999756
1590.666499	976.4000244
1591.175541	961.2000122
1591.684529	970.0
