 1.042545976E+03	 5.603000000E+03
 1.043112314E+03	 5.614600098E+03
 1.043678594E+03	 5.625600098E+03
 1.044244816E+03	 5.615200195E+03
 1.044810979E+03	 5.639200195E+03
 1.045377084E+03	 5.668000000E+03
 1.045943132E+03	 5.589200195E+03
 1.046509121E+03	 5.609200195E+03
 1.047075052E+03	 5.603000000E+03
 1.047640924E+03	 5.596200195E+03
 1.048206739E+03	 5.598399902E+03
 1.048772495E+03	 5.574200195E+03
 1.049338193E+03	 5.579399902E+03
 1.049903833E+03	 5.576399902E+03
 1.050469415E+03	 5.591000000E+03
 1.051034939E+03	 5.544399902E+03
 1.051600404E+03	 5.531799805E+03
 1.052165811E+03	 5.507000000E+03
 1.052731161E+03	 5.561600098E+03
 1.053296452E+03	 5.544000000E+03
 1.053861685E+03	 5.536200195E+03
 1.054426859E+03	 5.555399902E+03
 1.054991976E+03	 5.561600098E+03
 1.055557035E+03	 5.501399902E+03
 1.056122035E+03	 5.539000000E+03
 1.056686978E+03	 5.565799805E+03
 1.057251862E+03	 5.570200195E+03
 1.057816688E+03	 5.561399902E+03
 1.058381456E+03	 5.550399902E+03
 1.058946166E+03	 5.515399902E+03
 1.059510818E+03	 5.571000000E+03
 1.060075411E+03	 5.544799805E+03
 1.060639947E+03	 5.548799805E+03
 1.061204425E+03	 5.491000000E+03
 1.061768844E+03	 5.525799805E+03
 1.062333206E+03	 5.501600098E+03
 1.062897509E+03	 5.534399902E+03
 1.063461754E+03	 5.498200195E+03
 1.064025942E+03	 5.508600098E+03
 1.064590071E+03	 5.492600098E+03
 1.065154142E+03	 5.531000000E+03
 1.065718155E+03	 5.499000000E+03
 1.066282110E+03	 5.507799805E+03
 1.066846007E+03	 5.481200195E+03
 1.067409846E+03	 5.493399902E+03
 1.067973627E+03	 5.477000000E+03
 1.068537350E+03	 5.468399902E+03
 1.069101014E+03	 5.489399902E+03
 1.069664621E+03	 5.483200195E+03
 1.070228170E+03	 5.448399902E+03
 1.070791661E+03	 5.456799805E+03
 1.071355094E+03	 5.437399902E+03
 1.071918469E+03	 5.487799805E+03
 1.072481785E+03	 5.458200195E+03
 1.073045044E+03	 5.489399902E+03
 1.073608245E+03	 5.450799805E+03
 1.074171388E+03	 5.501399902E+03
 1.074734473E+03	 5.433000000E+03
 1.075297499E+03	 5.485399902E+03
 1.075860468E+03	 5.403799805E+03
 1.076423379E+03	 5.422399902E+03
 1.076986232E+03	 5.421799805E+03
 1.077549027E+03	 5.449000000E+03
 1.078111764E+03	 5.404600098E+03
 1.078674443E+03	 5.423399902E+03
 1.079237064E+03	 5.422399902E+03
 1.079799627E+03	 5.452200195E+03
 1.080362132E+03	 5.400600098E+03
 1.080924580E+03	 5.405799805E+03
 1.081486969E+03	 5.380600098E+03
 1.082049300E+03	 5.411200195E+03
 1.082611574E+03	 5.353000000E+03
 1.083173789E+03	 5.401399902E+03
 1.083735947E+03	 5.378000000E+03
 1.084298047E+03	 5.378200195E+03
 1.084860088E+03	 5.300799805E+03
 1.085422072E+03	 5.360200195E+03
 1.085983998E+03	 5.328799805E+03
 1.086545866E+03	 5.362200195E+03
 1.087107677E+03	 5.359600098E+03
 1.087669429E+03	 5.352200195E+03
 1.088231123E+03	 5.321000000E+03
 1.088792760E+03	 5.375399902E+03
 1.089354338E+03	 5.324399902E+03
 1.089915859E+03	 5.331399902E+03
 1.090477322E+03	 5.303399902E+03
 1.091038727E+03	 5.337799805E+03
 1.091600074E+03	 5.281799805E+03
 1.092161363E+03	 5.277200195E+03
 1.092722595E+03	 5.280799805E+03
 1.093283768E+03	 5.329000000E+03
 1.093844884E+03	 5.267600098E+03
 1.094405942E+03	 5.296600098E+03
 1.094966942E+03	 5.309799805E+03
 1.095527884E+03	 5.272799805E+03
 1.096088768E+03	 5.219000000E+03
 1.096649595E+03	 5.254799805E+03
 1.097210364E+03	 5.237600098E+03
 1.097771074E+03	 5.279200195E+03
 1.098331728E+03	 5.250600098E+03
 1.098892323E+03	 5.262000000E+03
 1.099452860E+03	 5.261799805E+03
 1.100013340E+03	 5.220600098E+03
 1.100573762E+03	 5.228000000E+03
 1.101134126E+03	 5.230200195E+03
 1.101694432E+03	 5.188399902E+03
 1.102254680E+03	 5.213200195E+03
 1.102814871E+03	 5.159000000E+03
 1.103375004E+03	 5.220399902E+03
 1.103935079E+03	 5.160600098E+03
 1.104495096E+03	 5.230799805E+03
 1.105055056E+03	 5.104000000E+03
 1.105614958E+03	 5.203000000E+03
 1.106174802E+03	 5.147799805E+03
 1.106734588E+03	 5.144799805E+03
 1.107294317E+03	 5.161399902E+03
 1.107853987E+03	 5.186000000E+03
 1.108413600E+03	 5.158600098E+03
 1.108973156E+03	 5.169399902E+03
 1.109532653E+03	 5.139399902E+03
 1.110092093E+03	 5.138600098E+03
 1.110651475E+03	 5.120600098E+03
 1.111210800E+03	 5.148600098E+03
 1.111770066E+03	 5.115200195E+03
 1.112329275E+03	 5.139399902E+03
 1.112888426E+03	 5.114799805E+03
 1.113447520E+03	 5.129600098E+03
 1.114006556E+03	 5.115799805E+03
 1.114565534E+03	 5.160200195E+03
 1.115124454E+03	 5.079000000E+03
 1.115683317E+03	 5.113399902E+03
 1.116242122E+03	 5.127799805E+03
 1.116800869E+03	 5.108399902E+03
 1.117359559E+03	 5.085000000E+03
 1.117918191E+03	 5.129200195E+03
 1.118476765E+03	 5.070600098E+03
 1.119035282E+03	 5.084799805E+03
 1.119593741E+03	 5.051000000E+03
 1.120152142E+03	 5.076600098E+03
 1.120710486E+03	 5.036200195E+03
 1.121268772E+03	 5.083399902E+03
 1.121827000E+03	 5.093000000E+03
 1.122385171E+03	 5.130600098E+03
 1.122943284E+03	 5.081000000E+03
 1.123501340E+03	 5.067600098E+03
 1.124059337E+03	 5.050600098E+03
 1.124617277E+03	 5.078200195E+03
 1.125175160E+03	 5.040799805E+03
 1.125732985E+03	 5.031200195E+03
 1.126290752E+03	 5.054399902E+03
 1.126848462E+03	 5.067000000E+03
 1.127406114E+03	 5.077600098E+03
 1.127963709E+03	 5.057799805E+03
 1.128521245E+03	 5.022200195E+03
 1.129078725E+03	 5.044000000E+03
 1.129636146E+03	 5.011399902E+03
 1.130193511E+03	 5.068399902E+03
 1.130750817E+03	 5.019200195E+03
 1.131308066E+03	 5.013600098E+03
 1.131865257E+03	 4.987200195E+03
 1.132422391E+03	 5.049000000E+03
 1.132979467E+03	 5.021000000E+03
 1.133536486E+03	 5.037000000E+03
 1.134093447E+03	 4.997000000E+03
 1.134650351E+03	 5.020200195E+03
 1.135207197E+03	 4.991200195E+03
 1.135763985E+03	 5.013399902E+03
 1.136320716E+03	 5.027600098E+03
 1.136877389E+03	 4.988600098E+03
 1.137434005E+03	 5.028799805E+03
 1.137990563E+03	 5.059200195E+03
 1.138547064E+03	 5.018600098E+03
 1.139103507E+03	 5.022600098E+03
 1.139659893E+03	 4.985399902E+03
 1.140216221E+03	 5.025600098E+03
 1.140772492E+03	 5.022399902E+03
 1.141328705E+03	 5.028600098E+03
 1.141884861E+03	 5.016000000E+03
 1.142440959E+03	 4.996200195E+03
 1.142997000E+03	 4.997399902E+03
 1.143552983E+03	 5.029399902E+03
 1.144108908E+03	 4.981399902E+03
 1.144664777E+03	 5.024600098E+03
 1.145220587E+03	 4.980799805E+03
 1.145776341E+03	 5.016799805E+03
 1.146332036E+03	 4.996799805E+03
 1.146887675E+03	 4.993399902E+03
 1.147443256E+03	 4.967600098E+03
 1.147998779E+03	 5.022200195E+03
 1.148554245E+03	 4.998000000E+03
 1.149109653E+03	 4.965000000E+03
 1.149665004E+03	 5.009399902E+03
 1.150220298E+03	 5.013600098E+03
 1.150775534E+03	 4.976600098E+03
 1.151330713E+03	 5.055600098E+03
 1.151885834E+03	 5.027600098E+03
 1.152440898E+03	 4.985600098E+03
 1.152995904E+03	 4.997799805E+03
 1.153550853E+03	 4.940000000E+03
 1.154105745E+03	 4.959799805E+03
 1.154660579E+03	 4.989799805E+03
 1.155215356E+03	 4.984799805E+03
 1.155770075E+03	 5.009600098E+03
 1.156324737E+03	 4.970200195E+03
 1.156879341E+03	 4.986600098E+03
 1.157433889E+03	 4.978200195E+03
 1.157988378E+03	 4.956200195E+03
 1.158542811E+03	 4.995399902E+03
 1.159097186E+03	 5.000000000E+03
 1.159651503E+03	 4.988000000E+03
 1.160205764E+03	 4.987000000E+03
 1.160759966E+03	 4.964600098E+03
 1.161314112E+03	 4.955000000E+03
 1.161868200E+03	 4.982399902E+03
 1.162422231E+03	 4.963600098E+03
 1.162976204E+03	 4.952200195E+03
 1.163530120E+03	 4.958600098E+03
 1.164083979E+03	 4.985399902E+03
 1.164637781E+03	 4.962000000E+03
 1.165191525E+03	 4.961000000E+03
 1.165745211E+03	 4.933000000E+03
 1.166298841E+03	 4.945200195E+03
 1.166852413E+03	 4.930399902E+03
 1.167405928E+03	 4.987200195E+03
 1.167959385E+03	 4.929799805E+03
 1.168512785E+03	 4.911399902E+03
 1.169066128E+03	 4.902200195E+03
 1.169619413E+03	 4.968200195E+03
 1.170172642E+03	 4.941399902E+03
 1.170725813E+03	 4.936200195E+03
 1.171278926E+03	 4.920799805E+03
 1.171831983E+03	 4.924000000E+03
 1.172384982E+03	 4.941399902E+03
 1.172937923E+03	 4.914399902E+03
 1.173490808E+03	 4.880200195E+03
 1.174043635E+03	 4.900000000E+03
 1.174596405E+03	 4.897799805E+03
 1.175149118E+03	 4.955799805E+03
 1.175701773E+03	 4.911200195E+03
 1.176254371E+03	 4.917799805E+03
 1.176806912E+03	 4.920200195E+03
 1.177359396E+03	 4.902600098E+03
 1.177911822E+03	 4.903200195E+03
 1.178464192E+03	 4.896600098E+03
 1.179016503E+03	 4.927200195E+03
 1.179568758E+03	 4.912200195E+03
 1.180120956E+03	 4.885799805E+03
 1.180673096E+03	 4.878799805E+03
 1.181225179E+03	 4.897399902E+03
 1.181777205E+03	 4.922200195E+03
 1.182329173E+03	 4.882000000E+03
 1.182881085E+03	 4.880399902E+03
 1.183432939E+03	 4.885600098E+03
 1.183984736E+03	 4.850000000E+03
 1.184536476E+03	 4.864399902E+03
 1.185088158E+03	 4.879000000E+03
 1.185639784E+03	 4.878799805E+03
 1.186191352E+03	 4.875600098E+03
 1.186742863E+03	 4.878600098E+03
 1.187294317E+03	 4.880200195E+03
 1.187845713E+03	 4.865200195E+03
 1.188397053E+03	 4.862000000E+03
 1.188948335E+03	 4.866000000E+03
 1.189499561E+03	 4.818000000E+03
 1.190050729E+03	 4.852600098E+03
 1.190601839E+03	 4.876200195E+03
 1.191152893E+03	 4.883600098E+03
 1.191703890E+03	 4.842799805E+03
 1.192254829E+03	 4.825000000E+03
 1.192805712E+03	 4.858200195E+03
 1.193356537E+03	 4.833000000E+03
 1.193907305E+03	 4.829799805E+03
 1.194458016E+03	 4.806600098E+03
 1.195008670E+03	 4.777399902E+03
 1.195559266E+03	 4.842600098E+03
 1.196109806E+03	 4.851000000E+03
 1.196660288E+03	 4.800200195E+03
 1.197210714E+03	 4.802399902E+03
 1.197761082E+03	 4.826200195E+03
 1.198311393E+03	 4.820000000E+03
 1.198861647E+03	 4.781600098E+03
 1.199411844E+03	 4.752799805E+03
 1.199961984E+03	 4.833200195E+03
 1.200512067E+03	 4.769200195E+03
 1.201062092E+03	 4.761200195E+03
 1.201612061E+03	 4.791000000E+03
 1.202161973E+03	 4.796600098E+03
 1.202711827E+03	 4.775000000E+03
 1.203261625E+03	 4.747200195E+03
 1.203811365E+03	 4.810000000E+03
 1.204361048E+03	 4.766000000E+03
 1.204910675E+03	 4.782600098E+03
 1.205460244E+03	 4.774399902E+03
 1.206009756E+03	 4.770600098E+03
 1.206559211E+03	 4.759000000E+03
 1.207108610E+03	 4.761200195E+03
 1.207657951E+03	 4.760200195E+03
 1.208207235E+03	 4.730600098E+03
 1.208756462E+03	 4.769600098E+03
 1.209305632E+03	 4.755799805E+03
 1.209854745E+03	 4.774399902E+03
 1.210403801E+03	 4.734600098E+03
 1.210952800E+03	 4.751799805E+03
 1.211501742E+03	 4.740399902E+03
 1.212050627E+03	 4.741799805E+03
 1.212599455E+03	 4.715600098E+03
 1.213148226E+03	 4.721399902E+03
 1.213696940E+03	 4.719000000E+03
 1.214245597E+03	 4.716399902E+03
 1.214794197E+03	 4.706600098E+03
 1.215342740E+03	 4.725399902E+03
 1.215891227E+03	 4.712799805E+03
 1.216439656E+03	 4.737200195E+03
 1.216988028E+03	 4.699000000E+03
 1.217536343E+03	 4.717000000E+03
 1.218084602E+03	 4.676399902E+03
 1.218632803E+03	 4.703799805E+03
 1.219180947E+03	 4.689799805E+03
 1.219729035E+03	 4.692799805E+03
 1.220277065E+03	 4.633399902E+03
 1.220825039E+03	 4.676200195E+03
 1.221372956E+03	 4.720000000E+03
 1.221920815E+03	 4.705000000E+03
 1.222468618E+03	 4.660600098E+03
 1.223016364E+03	 4.671600098E+03
 1.223564053E+03	 4.709600098E+03
 1.224111685E+03	 4.679399902E+03
 1.224659260E+03	 4.639000000E+03
 1.225206779E+03	 4.662000000E+03
 1.225754240E+03	 4.650600098E+03
 1.226301645E+03	 4.716600098E+03
 1.226848992E+03	 4.660000000E+03
 1.227396283E+03	 4.707399902E+03
 1.227943517E+03	 4.665200195E+03
 1.228490694E+03	 4.652399902E+03
 1.229037814E+03	 4.662200195E+03
 1.229584877E+03	 4.654799805E+03
 1.230131883E+03	 4.660200195E+03
 1.230678833E+03	 4.657600098E+03
 1.231225725E+03	 4.676600098E+03
 1.231772561E+03	 4.607000000E+03
 1.232319340E+03	 4.629399902E+03
 1.232866062E+03	 4.631799805E+03
 1.233412727E+03	 4.620200195E+03
 1.233959336E+03	 4.639399902E+03
 1.234505887E+03	 4.648200195E+03
 1.235052382E+03	 4.624399902E+03
 1.235598820E+03	 4.659600098E+03
 1.236145201E+03	 4.612600098E+03
 1.236691525E+03	 4.631000000E+03
 1.237237793E+03	 4.600000000E+03
 1.237784003E+03	 4.651399902E+03
 1.238330157E+03	 4.606799805E+03
 1.238876254E+03	 4.651000000E+03
 1.239422295E+03	 4.625200195E+03
 1.239968278E+03	 4.613200195E+03
 1.240514205E+03	 4.599600098E+03
 1.241060074E+03	 4.641200195E+03
 1.241605888E+03	 4.569000000E+03
 1.242151644E+03	 4.596000000E+03
 1.242697343E+03	 4.575600098E+03
 1.243242986E+03	 4.611600098E+03
 1.243788572E+03	 4.587200195E+03
 1.244334101E+03	 4.572799805E+03
 1.244879574E+03	 4.597200195E+03
 1.245424990E+03	 4.586000000E+03
 1.245970349E+03	 4.594600098E+03
 1.246515651E+03	 4.588600098E+03
 1.247060896E+03	 4.574600098E+03
 1.247606085E+03	 4.577600098E+03
 1.248151217E+03	 4.589600098E+03
 1.248696292E+03	 4.576799805E+03
 1.249241311E+03	 4.617799805E+03
 1.249786273E+03	 4.616399902E+03
 1.250331178E+03	 4.570399902E+03
 1.250876026E+03	 4.559200195E+03
 1.251420818E+03	 4.624000000E+03
 1.251965553E+03	 4.574600098E+03
 1.252510231E+03	 4.570000000E+03
 1.253054853E+03	 4.528200195E+03
 1.253599418E+03	 4.561799805E+03
 1.254143926E+03	 4.559799805E+03
 1.254688377E+03	 4.591200195E+03
 1.255232772E+03	 4.546000000E+03
 1.255777110E+03	 4.533399902E+03
 1.256321392E+03	 4.547399902E+03
 1.256865617E+03	 4.526000000E+03
 1.257409785E+03	 4.516600098E+03
 1.257953896E+03	 4.528200195E+03
 1.258497951E+03	 4.546200195E+03
 1.259041949E+03	 4.527799805E+03
 1.259585891E+03	 4.536399902E+03
 1.260129776E+03	 4.552600098E+03
 1.260673604E+03	 4.527799805E+03
 1.261217375E+03	 4.516000000E+03
 1.261761090E+03	 4.548600098E+03
 1.262304749E+03	 4.524200195E+03
 1.262848350E+03	 4.544200195E+03
 1.263391896E+03	 4.572399902E+03
 1.263935384E+03	 4.538200195E+03
 1.264478816E+03	 4.542200195E+03
 1.265022191E+03	 4.599600098E+03
 1.265565510E+03	 4.515000000E+03
 1.266108772E+03	 4.518200195E+03
 1.266651977E+03	 4.495799805E+03
 1.267195126E+03	 4.496600098E+03
 1.267738218E+03	 4.506200195E+03
 1.268281254E+03	 4.511200195E+03
 1.268824233E+03	 4.503000000E+03
 1.269367155E+03	 4.489200195E+03
 1.269910021E+03	 4.515600098E+03
 1.270452831E+03	 4.493000000E+03
 1.270995583E+03	 4.478000000E+03
 1.271538280E+03	 4.493200195E+03
 1.272080919E+03	 4.494600098E+03
 1.272623502E+03	 4.483200195E+03
 1.273166029E+03	 4.477600098E+03
 1.273708499E+03	 4.457000000E+03
 1.274250912E+03	 4.497399902E+03
 1.274793269E+03	 4.493000000E+03
 1.275335570E+03	 4.497200195E+03
 1.275877814E+03	 4.479399902E+03
 1.276420001E+03	 4.473200195E+03
 1.276962132E+03	 4.469000000E+03
 1.277504206E+03	 4.515200195E+03
 1.278046224E+03	 4.463200195E+03
 1.278588185E+03	 4.483600098E+03
 1.279130090E+03	 4.473600098E+03
 1.279671938E+03	 4.472600098E+03
 1.280213730E+03	 4.473799805E+03
 1.280755465E+03	 4.434200195E+03
 1.281297144E+03	 4.432799805E+03
 1.281838766E+03	 4.436799805E+03
 1.282380332E+03	 4.459000000E+03
 1.282921841E+03	 4.491000000E+03
 1.283463294E+03	 4.503000000E+03
 1.284004691E+03	 4.561799805E+03
 1.284546031E+03	 4.886000000E+03
 1.285087314E+03	 5.409000000E+03
 1.285628541E+03	 5.048799805E+03
 1.286169711E+03	 4.590000000E+03
 1.286710826E+03	 4.503600098E+03
 1.287251883E+03	 4.466799805E+03
 1.287792884E+03	 4.434600098E+03
 1.288333829E+03	 4.434399902E+03
 1.288874717E+03	 4.421600098E+03
 1.289415549E+03	 4.424600098E+03
 1.289956325E+03	 4.384000000E+03
 1.290497044E+03	 4.426000000E+03
 1.291037706E+03	 4.417399902E+03
 1.291578313E+03	 4.406000000E+03
 1.292118862E+03	 4.420000000E+03
 1.292659356E+03	 4.350200195E+03
 1.293199793E+03	 4.424200195E+03
 1.293740173E+03	 4.359399902E+03
 1.294280498E+03	 4.383600098E+03
 1.294820765E+03	 4.389399902E+03
 1.295360977E+03	 4.383799805E+03
 1.295901132E+03	 4.375399902E+03
 1.296441230E+03	 4.369600098E+03
 1.296981273E+03	 4.372399902E+03
 1.297521259E+03	 4.328399902E+03
 1.298061188E+03	 4.372000000E+03
 1.298601061E+03	 4.403600098E+03
 1.299140878E+03	 4.409600098E+03
 1.299680639E+03	 4.329000000E+03
 1.300220343E+03	 4.336600098E+03
 1.300759990E+03	 4.392799805E+03
 1.301299582E+03	 4.324000000E+03
 1.301839117E+03	 4.368000000E+03
 1.302378596E+03	 4.310600098E+03
 1.302918018E+03	 4.332600098E+03
 1.303457384E+03	 4.353799805E+03
 1.303996694E+03	 4.365000000E+03
 1.304535947E+03	 4.362799805E+03
 1.305075145E+03	 4.321399902E+03
 1.305614285E+03	 4.367799805E+03
 1.306153370E+03	 4.338200195E+03
 1.306692398E+03	 4.345799805E+03
 1.307231370E+03	 4.314799805E+03
 1.307770286E+03	 4.341399902E+03
 1.308309145E+03	 4.305200195E+03
 1.308847948E+03	 4.327399902E+03
 1.309386695E+03	 4.332600098E+03
 1.309925385E+03	 4.327000000E+03
 1.310464019E+03	 4.304799805E+03
 1.311002597E+03	 4.317399902E+03
 1.311541119E+03	 4.303000000E+03
 1.312079584E+03	 4.323200195E+03
 1.312617993E+03	 4.298399902E+03
 1.313156346E+03	 4.305200195E+03
 1.313694643E+03	 4.306000000E+03
 1.314232883E+03	 4.312399902E+03
 1.314771067E+03	 4.302200195E+03
 1.315309195E+03	 4.304600098E+03
 1.315847267E+03	 4.274399902E+03
 1.316385282E+03	 4.298799805E+03
 1.316923241E+03	 4.289399902E+03
 1.317461144E+03	 4.277799805E+03
 1.317998991E+03	 4.286000000E+03
 1.318536782E+03	 4.255799805E+03
 1.319074516E+03	 4.306000000E+03
 1.319612194E+03	 4.245200195E+03
 1.320149816E+03	 4.280200195E+03
 1.320687382E+03	 4.260000000E+03
 1.321224891E+03	 4.285799805E+03
 1.321762344E+03	 4.258000000E+03
 1.322299742E+03	 4.258799805E+03
 1.322837083E+03	 4.254399902E+03
 1.323374367E+03	 4.263399902E+03
 1.323911596E+03	 4.262200195E+03
 1.324448768E+03	 4.280600098E+03
 1.324985885E+03	 4.245200195E+03
 1.325522945E+03	 4.265200195E+03
 1.326059949E+03	 4.247799805E+03
 1.326596896E+03	 4.254399902E+03
 1.327133788E+03	 4.237799805E+03
 1.327670623E+03	 4.257600098E+03
 1.328207403E+03	 4.230399902E+03
 1.328744126E+03	 4.231799805E+03
 1.329280793E+03	 4.263799805E+03
 1.329817404E+03	 4.228000000E+03
 1.330353959E+03	 4.247200195E+03
 1.330890457E+03	 4.216799805E+03
 1.331426900E+03	 4.248200195E+03
 1.331963286E+03	 4.231600098E+03
 1.332499617E+03	 4.249799805E+03
 1.333035891E+03	 4.188200195E+03
 1.333572109E+03	 4.228600098E+03
 1.334108271E+03	 4.239600098E+03
 1.334644377E+03	 4.207200195E+03
 1.335180427E+03	 4.188799805E+03
 1.335716420E+03	 4.228200195E+03
 1.336252358E+03	 4.183600098E+03
 1.336788240E+03	 4.241000000E+03
 1.337324065E+03	 4.184799805E+03
 1.337859834E+03	 4.206200195E+03
 1.338395548E+03	 4.222600098E+03
 1.338931205E+03	 4.186000000E+03
 1.339466806E+03	 4.211200195E+03
 1.340002351E+03	 4.204799805E+03
 1.340537841E+03	 4.191600098E+03
 1.341073274E+03	 4.188799805E+03
 1.341608651E+03	 4.191799805E+03
 1.342143972E+03	 4.169799805E+03
 1.342679236E+03	 4.208600098E+03
 1.343214445E+03	 4.189799805E+03
 1.343749598E+03	 4.181200195E+03
 1.344284695E+03	 4.162000000E+03
 1.344819736E+03	 4.188000000E+03
 1.345354721E+03	 4.157799805E+03
 1.345889650E+03	 4.168000000E+03
 1.346424522E+03	 4.146799805E+03
 1.346959339E+03	 4.187600098E+03
 1.347494100E+03	 4.152799805E+03
 1.348028805E+03	 4.172600098E+03
 1.348563453E+03	 4.145600098E+03
 1.349098046E+03	 4.144600098E+03
 1.349632583E+03	 4.176000000E+03
 1.350167064E+03	 4.149000000E+03
 1.350701489E+03	 4.138000000E+03
 1.351235858E+03	 4.169000000E+03
 1.351770171E+03	 4.173600098E+03
 1.352304428E+03	 4.166200195E+03
 1.352838629E+03	 4.118600098E+03
 1.353372774E+03	 4.157600098E+03
 1.353906863E+03	 4.155000000E+03
 1.354440896E+03	 4.125600098E+03
 1.354974873E+03	 4.158799805E+03
 1.355508794E+03	 4.124000000E+03
 1.356042660E+03	 4.138399902E+03
 1.356576469E+03	 4.116000000E+03
 1.357110222E+03	 4.150200195E+03
 1.357643920E+03	 4.087000000E+03
 1.358177561E+03	 4.099600098E+03
 1.358711147E+03	 4.110000000E+03
 1.359244677E+03	 4.112799805E+03
 1.359778151E+03	 4.108200195E+03
 1.360311569E+03	 4.132799805E+03
 1.360844931E+03	 4.115600098E+03
 1.361378237E+03	 4.091800049E+03
 1.361911487E+03	 4.107600098E+03
 1.362444682E+03	 4.120600098E+03
 1.362977820E+03	 4.121600098E+03
 1.363510903E+03	 4.075600098E+03
 1.364043929E+03	 4.111600098E+03
 1.364576900E+03	 4.090600098E+03
 1.365109815E+03	 4.108000000E+03
 1.365642674E+03	 4.094199951E+03
 1.366175478E+03	 4.111200195E+03
 1.366708225E+03	 4.082800049E+03
 1.367240917E+03	 4.111000000E+03
 1.367773552E+03	 4.091399902E+03
 1.368306132E+03	 4.084600098E+03
 1.368838656E+03	 4.063199951E+03
 1.369371124E+03	 4.092399902E+03
 1.369903537E+03	 4.089600098E+03
 1.370435893E+03	 4.090000000E+03
 1.370968194E+03	 4.113799805E+03
 1.371500439E+03	 4.078199951E+03
 1.372032628E+03	 4.069199951E+03
 1.372564761E+03	 4.068600098E+03
 1.373096838E+03	 4.080000000E+03
 1.373628860E+03	 4.045600098E+03
 1.374160826E+03	 4.068399902E+03
 1.374692736E+03	 4.038199951E+03
 1.375224590E+03	 4.107799805E+03
 1.375756388E+03	 4.046600098E+03
 1.376288131E+03	 4.072800049E+03
 1.376819818E+03	 4.047800049E+03
 1.377351449E+03	 4.061399902E+03
 1.377883024E+03	 4.031199951E+03
 1.378414544E+03	 4.055800049E+03
 1.378946008E+03	 4.036399902E+03
 1.379477416E+03	 4.026399902E+03
 1.380008768E+03	 4.044000000E+03
 1.380540064E+03	 4.047399902E+03
 1.381071305E+03	 4.071800049E+03
 1.381602490E+03	 4.018399902E+03
 1.382133619E+03	 4.050199951E+03
 1.382664693E+03	 4.072800049E+03
 1.383195711E+03	 4.059399902E+03
 1.383726673E+03	 4.065199951E+03
 1.384257579E+03	 4.065000000E+03
 1.384788430E+03	 4.043399902E+03
 1.385319224E+03	 4.063199951E+03
 1.385849964E+03	 4.037199951E+03
 1.386380647E+03	 4.074800049E+03
 1.386911275E+03	 4.105399902E+03
 1.387441847E+03	 4.300600098E+03
 1.387972363E+03	 4.949000000E+03
 1.388502824E+03	 5.689000000E+03
 1.389033229E+03	 4.668399902E+03
 1.389563578E+03	 4.164600098E+03
 1.390093872E+03	 4.060800049E+03
 1.390624110E+03	 4.017399902E+03
 1.391154292E+03	 4.007800049E+03
 1.391684419E+03	 4.017800049E+03
 1.392214489E+03	 4.037000000E+03
 1.392744505E+03	 4.027199951E+03
 1.393274464E+03	 4.010600098E+03
 1.393804368E+03	 3.982600098E+03
 1.394334216E+03	 3.982000000E+03
 1.394864009E+03	 4.006800049E+03
 1.395393746E+03	 4.025800049E+03
 1.395923427E+03	 3.977000000E+03
 1.396453053E+03	 3.993800049E+03
 1.396982623E+03	 4.017399902E+03
 1.397512138E+03	 3.960600098E+03
 1.398041597E+03	 4.016800049E+03
 1.398571000E+03	 3.980000000E+03
 1.399100347E+03	 4.012000000E+03
 1.399629639E+03	 3.959600098E+03
 1.400158876E+03	 4.009800049E+03
 1.400688056E+03	 3.966399902E+03
 1.401217182E+03	 3.991600098E+03
 1.401746251E+03	 3.978000000E+03
 1.402275265E+03	 4.016199951E+03
 1.402804224E+03	 4.003800049E+03
 1.403333126E+03	 4.005800049E+03
 1.403861974E+03	 3.985399902E+03
 1.404390765E+03	 3.983199951E+03
 1.404919501E+03	 3.979199951E+03
 1.405448182E+03	 3.996399902E+03
 1.405976807E+03	 3.972199951E+03
 1.406505376E+03	 3.977000000E+03
 1.407033890E+03	 3.942199951E+03
 1.407562349E+03	 3.972399902E+03
 1.408090751E+03	 3.961399902E+03
 1.408619098E+03	 3.988199951E+03
 1.409147390E+03	 4.048800049E+03
 1.409675626E+03	 4.053000000E+03
 1.410203807E+03	 4.054199951E+03
 1.410731932E+03	 3.981800049E+03
 1.411260001E+03	 3.993199951E+03
 1.411788015E+03	 3.950600098E+03
 1.412315974E+03	 3.935399902E+03
 1.412843877E+03	 3.938800049E+03
 1.413371725E+03	 3.947800049E+03
 1.413899516E+03	 3.934199951E+03
 1.414427253E+03	 3.963600098E+03
 1.414954934E+03	 3.966000000E+03
 1.415482559E+03	 3.956399902E+03
 1.416010129E+03	 3.966399902E+03
 1.416537644E+03	 3.916199951E+03
 1.417065103E+03	 3.942399902E+03
 1.417592507E+03	 3.905600098E+03
 1.418119855E+03	 3.944000000E+03
 1.418647147E+03	 3.921600098E+03
 1.419174385E+03	 3.926000000E+03
 1.419701566E+03	 3.908600098E+03
 1.420228692E+03	 3.950399902E+03
 1.420755763E+03	 3.948199951E+03
 1.421282779E+03	 3.949199951E+03
 1.421809739E+03	 3.925199951E+03
 1.422336643E+03	 3.920800049E+03
 1.422863492E+03	 3.929600098E+03
 1.423390286E+03	 3.896800049E+03
 1.423917024E+03	 3.942199951E+03
 1.424443707E+03	 3.934199951E+03
 1.424970334E+03	 3.926800049E+03
 1.425496906E+03	 3.921800049E+03
 1.426023422E+03	 3.921800049E+03
 1.426549883E+03	 3.939399902E+03
 1.427076289E+03	 3.935000000E+03
 1.427602639E+03	 3.899000000E+03
 1.428128934E+03	 3.952199951E+03
 1.428655174E+03	 3.874600098E+03
 1.429181358E+03	 3.918800049E+03
 1.429707486E+03	 3.927399902E+03
 1.430233560E+03	 3.888600098E+03
 1.430759578E+03	 3.935600098E+03
 1.431285540E+03	 3.893399902E+03
 1.431811448E+03	 3.901399902E+03
 1.432337299E+03	 3.900800049E+03
 1.432863096E+03	 3.881199951E+03
 1.433388837E+03	 3.894000000E+03
 1.433914523E+03	 3.909600098E+03
 1.434440153E+03	 3.875399902E+03
 1.434965728E+03	 3.870600098E+03
 1.435491248E+03	 3.885600098E+03
 1.436016712E+03	 3.870800049E+03
 1.436542122E+03	 3.884000000E+03
 1.437067475E+03	 3.878000000E+03
 1.437592774E+03	 3.860800049E+03
 1.438118017E+03	 3.860800049E+03
 1.438643205E+03	 3.887399902E+03
 1.439168337E+03	 3.877600098E+03
 1.439693414E+03	 3.873399902E+03
 1.440218436E+03	 3.858199951E+03
 1.440743403E+03	 3.843800049E+03
 1.441268314E+03	 3.862199951E+03
 1.441793170E+03	 3.855800049E+03
 1.442317970E+03	 3.849399902E+03
 1.442842716E+03	 3.848600098E+03
 1.443367406E+03	 3.862000000E+03
 1.443892041E+03	 3.820800049E+03
 1.444416620E+03	 3.879199951E+03
 1.444941145E+03	 3.845399902E+03
 1.445465614E+03	 3.831000000E+03
 1.445990027E+03	 3.856800049E+03
 1.446514386E+03	 3.823600098E+03
 1.447038689E+03	 3.843199951E+03
 1.447562937E+03	 3.838199951E+03
 1.448087130E+03	 3.865000000E+03
 1.448611267E+03	 3.862600098E+03
 1.449135350E+03	 3.850800049E+03
 1.449659377E+03	 3.830600098E+03
 1.450183348E+03	 3.830399902E+03
 1.450707265E+03	 3.823399902E+03
 1.451231126E+03	 3.849199951E+03
 1.451754932E+03	 3.827800049E+03
 1.452278683E+03	 3.821600098E+03
 1.452802379E+03	 3.842399902E+03
 1.453326020E+03	 3.851399902E+03
 1.453849605E+03	 3.830800049E+03
 1.454373135E+03	 3.825800049E+03
 1.454896610E+03	 3.811399902E+03
 1.455420030E+03	 3.811600098E+03
 1.455943394E+03	 3.815600098E+03
 1.456466703E+03	 3.804000000E+03
 1.456989958E+03	 3.805000000E+03
 1.457513157E+03	 3.809000000E+03
 1.458036300E+03	 3.825000000E+03
 1.458559389E+03	 3.801000000E+03
 1.459082423E+03	 3.820000000E+03
 1.459605401E+03	 3.801800049E+03
 1.460128324E+03	 3.783000000E+03
 1.460651192E+03	 3.781800049E+03
 1.461174005E+03	 3.771199951E+03
 1.461696763E+03	 3.783199951E+03
 1.462219465E+03	 3.816199951E+03
 1.462742113E+03	 3.790800049E+03
 1.463264705E+03	 3.767399902E+03
 1.463787242E+03	 3.800600098E+03
 1.464309724E+03	 3.773800049E+03
 1.464832151E+03	 3.773399902E+03
 1.465354523E+03	 3.757600098E+03
 1.465876840E+03	 3.786800049E+03
 1.466399102E+03	 3.769399902E+03
 1.466921308E+03	 3.768600098E+03
 1.467443459E+03	 3.767000000E+03
 1.467965556E+03	 3.788199951E+03
 1.468487597E+03	 3.795600098E+03
 1.469009583E+03	 3.771199951E+03
 1.469531514E+03	 3.761199951E+03
 1.470053390E+03	 3.781399902E+03
 1.470575211E+03	 3.731600098E+03
 1.471096977E+03	 3.752600098E+03
 1.471618688E+03	 3.727399902E+03
 1.472140343E+03	 3.734199951E+03
 1.472661944E+03	 3.776600098E+03
 1.473183490E+03	 3.751800049E+03
 1.473704980E+03	 3.738199951E+03
 1.474226416E+03	 3.731399902E+03
 1.474747796E+03	 3.761800049E+03
 1.475269122E+03	 3.761199951E+03
 1.475790392E+03	 3.758199951E+03
 1.476311607E+03	 3.743000000E+03
 1.476832768E+03	 3.740000000E+03
 1.477353873E+03	 3.714600098E+03
 1.477874923E+03	 3.750600098E+03
 1.478395918E+03	 3.704399902E+03
 1.478916859E+03	 3.731600098E+03
 1.479437744E+03	 3.701600098E+03
 1.479958574E+03	 3.704000000E+03
 1.480479349E+03	 3.719199951E+03
 1.481000070E+03	 3.697199951E+03
 1.481520735E+03	 3.729000000E+03
 1.482041345E+03	 3.690600098E+03
 1.482561900E+03	 3.704800049E+03
 1.483082401E+03	 3.711600098E+03
 1.483602846E+03	 3.690199951E+03
 1.484123236E+03	 3.714000000E+03
 1.484643572E+03	 3.725000000E+03
 1.485163852E+03	 3.698800049E+03
 1.485684077E+03	 3.729000000E+03
 1.486204248E+03	 3.710000000E+03
 1.486724363E+03	 3.719000000E+03
 1.487244424E+03	 3.697199951E+03
 1.487764430E+03	 3.699000000E+03
 1.488284380E+03	 3.700199951E+03
 1.488804276E+03	 3.703800049E+03
 1.489324117E+03	 3.682600098E+03
 1.489843903E+03	 3.687399902E+03
 1.490363634E+03	 3.677199951E+03
 1.490883310E+03	 3.663800049E+03
 1.491402931E+03	 3.686000000E+03
 1.491922497E+03	 3.670800049E+03
 1.492442008E+03	 3.655199951E+03
 1.492961465E+03	 3.696000000E+03
 1.493480866E+03	 3.715399902E+03
 1.494000213E+03	 3.675399902E+03
 1.494519505E+03	 3.655600098E+03
 1.495038741E+03	 3.680600098E+03
 1.495557923E+03	 3.683600098E+03
 1.496077050E+03	 3.663399902E+03
 1.496596122E+03	 3.660399902E+03
 1.497115140E+03	 3.665000000E+03
 1.497634102E+03	 3.688800049E+03
 1.498153010E+03	 3.674399902E+03
 1.498671862E+03	 3.683199951E+03
 1.499190660E+03	 3.654600098E+03
 1.499709403E+03	 3.668000000E+03
 1.500228091E+03	 3.655199951E+03
 1.500746725E+03	 3.650399902E+03
 1.501265303E+03	 3.649199951E+03
 1.501783827E+03	 3.661399902E+03
 1.502302296E+03	 3.659600098E+03
 1.502820709E+03	 3.656199951E+03
 1.503339069E+03	 3.632199951E+03
 1.503857373E+03	 3.637600098E+03
 1.504375622E+03	 3.657199951E+03
 1.504893817E+03	 3.634199951E+03
 1.505411957E+03	 3.636399902E+03
 1.505930042E+03	 3.640000000E+03
 1.506448072E+03	 3.662399902E+03
 1.506966048E+03	 3.619600098E+03
 1.507483968E+03	 3.659600098E+03
 1.508001834E+03	 3.607199951E+03
 1.508519645E+03	 3.636600098E+03
 1.509037401E+03	 3.622800049E+03
 1.509555103E+03	 3.629000000E+03
 1.510072750E+03	 3.607199951E+03
 1.510590342E+03	 3.636000000E+03
 1.511107879E+03	 3.637000000E+03
 1.511625361E+03	 3.629600098E+03
 1.512142789E+03	 3.631000000E+03
 1.512660162E+03	 3.607000000E+03
 1.513177480E+03	 3.609399902E+03
 1.513694743E+03	 3.612399902E+03
 1.514211952E+03	 3.631199951E+03
 1.514729106E+03	 3.596000000E+03
 1.515246205E+03	 3.626399902E+03
 1.515763250E+03	 3.607000000E+03
 1.516280239E+03	 3.613199951E+03
 1.516797174E+03	 3.601000000E+03
 1.517314055E+03	 3.613800049E+03
 1.517830880E+03	 3.626399902E+03
 1.518347651E+03	 3.615600098E+03
 1.518864367E+03	 3.604399902E+03
 1.519381029E+03	 3.601399902E+03
 1.519897635E+03	 3.611000000E+03
 1.520414187E+03	 3.594199951E+03
 1.520930685E+03	 3.596399902E+03
 1.521447127E+03	 3.621399902E+03
 1.521963515E+03	 3.598000000E+03
 1.522479849E+03	 3.578000000E+03
 1.522996127E+03	 3.617399902E+03
 1.523512351E+03	 3.573800049E+03
 1.524028521E+03	 3.577199951E+03
 1.524544635E+03	 3.601399902E+03
 1.525060695E+03	 3.586000000E+03
 1.525576701E+03	 3.602199951E+03
 1.526092651E+03	 3.585800049E+03
 1.526608547E+03	 3.576600098E+03
 1.527124389E+03	 3.586800049E+03
 1.527640175E+03	 3.613199951E+03
 1.528155907E+03	 3.598600098E+03
 1.528671585E+03	 3.597800049E+03
 1.529187208E+03	 3.589800049E+03
 1.529702776E+03	 3.539000000E+03
 1.530218289E+03	 3.586800049E+03
 1.530733748E+03	 3.569399902E+03
 1.531249153E+03	 3.579800049E+03
 1.531764502E+03	 3.563399902E+03
 1.532279798E+03	 3.577199951E+03
 1.532795038E+03	 3.581000000E+03
 1.533310224E+03	 3.608000000E+03
 1.533825355E+03	 3.579600098E+03
 1.534340432E+03	 3.575000000E+03
 1.534855454E+03	 3.571800049E+03
 1.535370422E+03	 3.576600098E+03
 1.535885335E+03	 3.598800049E+03
 1.536400193E+03	 3.529399902E+03
 1.536914997E+03	 3.600000000E+03
 1.537429746E+03	 3.562399902E+03
 1.537944441E+03	 3.602199951E+03
 1.538459081E+03	 3.561399902E+03
 1.538973667E+03	 3.585199951E+03
 1.539488198E+03	 3.556399902E+03
 1.540002674E+03	 3.558800049E+03
 1.540517096E+03	 3.564399902E+03
 1.541031464E+03	 3.583600098E+03
 1.541545777E+03	 3.557800049E+03
 1.542060035E+03	 3.552000000E+03
 1.542574239E+03	 3.604600098E+03
 1.543088388E+03	 3.582800049E+03
 1.543602483E+03	 3.578399902E+03
 1.544116523E+03	 3.559199951E+03
 1.544630509E+03	 3.548600098E+03
 1.545144440E+03	 3.593199951E+03
 1.545658317E+03	 3.567000000E+03
 1.546172139E+03	 3.582600098E+03
 1.546685907E+03	 3.558199951E+03
 1.547199620E+03	 3.611600098E+03
 1.547713279E+03	 3.565000000E+03
 1.548226883E+03	 3.578000000E+03
 1.548740433E+03	 3.534399902E+03
 1.549253929E+03	 3.587000000E+03
 1.549767370E+03	 3.555000000E+03
 1.550280756E+03	 3.572600098E+03
 1.550794088E+03	 3.542000000E+03
 1.551307365E+03	 3.543800049E+03
 1.551820588E+03	 3.575000000E+03
 1.552333757E+03	 3.549800049E+03
 1.552846871E+03	 3.549800049E+03
 1.553359931E+03	 3.544800049E+03
 1.553872936E+03	 3.580600098E+03
 1.554385887E+03	 3.514399902E+03
 1.554898783E+03	 3.556000000E+03
 1.555411625E+03	 3.539600098E+03
 1.555924413E+03	 3.523000000E+03
 1.556437146E+03	 3.546399902E+03
 1.556949824E+03	 3.537199951E+03
 1.557462449E+03	 3.558399902E+03
 1.557975019E+03	 3.537199951E+03
 1.558487534E+03	 3.554000000E+03
 1.558999995E+03	 3.546399902E+03
 1.559512402E+03	 3.559000000E+03
 1.560024754E+03	 3.544000000E+03
 1.560537052E+03	 3.523199951E+03
 1.561049295E+03	 3.536199951E+03
 1.561561485E+03	 3.553000000E+03
 1.562073619E+03	 3.541800049E+03
 1.562585700E+03	 3.512800049E+03
 1.563097726E+03	 3.531600098E+03
 1.563609697E+03	 3.512000000E+03
 1.564121615E+03	 3.534000000E+03
 1.564633477E+03	 3.502800049E+03
 1.565145286E+03	 3.544000000E+03
 1.565657040E+03	 3.524000000E+03
 1.566168740E+03	 3.537600098E+03
 1.566680386E+03	 3.525199951E+03
 1.567191977E+03	 3.542399902E+03
 1.567703514E+03	 3.522199951E+03
 1.568214996E+03	 3.525000000E+03
 1.568726424E+03	 3.530000000E+03
 1.569237798E+03	 3.489199951E+03
 1.569749118E+03	 3.533800049E+03
 1.570260383E+03	 3.504399902E+03
 1.570771594E+03	 3.527399902E+03
 1.571282750E+03	 3.528399902E+03
 1.571793853E+03	 3.536399902E+03
 1.572304901E+03	 3.520199951E+03
 1.572815895E+03	 3.505000000E+03
 1.573326834E+03	 3.530800049E+03
 1.573837719E+03	 3.505600098E+03
 1.574348550E+03	 3.505600098E+03
 1.574859327E+03	 3.526000000E+03
 1.575370049E+03	 3.536800049E+03
 1.575880717E+03	 3.508199951E+03
 1.576391331E+03	 3.537199951E+03
 1.576901890E+03	 3.493199951E+03
 1.577412395E+03	 3.512399902E+03
 1.577922846E+03	 3.509600098E+03
 1.578433243E+03	 3.518199951E+03
 1.578943586E+03	 3.481800049E+03
 1.579453874E+03	 3.493600098E+03
 1.579964108E+03	 3.509600098E+03
 1.580474288E+03	 3.458199951E+03
 1.580984413E+03	 3.501800049E+03
 1.581494484E+03	 3.475199951E+03
 1.582004501E+03	 3.493199951E+03
 1.582514464E+03	 3.463600098E+03
 1.583024373E+03	 3.528000000E+03
 1.583534227E+03	 3.503600098E+03
 1.584044028E+03	 3.475600098E+03
 1.584553774E+03	 3.496000000E+03
 1.585063465E+03	 3.478199951E+03
 1.585573103E+03	 3.483800049E+03
 1.586082687E+03	 3.459600098E+03
 1.586592216E+03	 3.486199951E+03
 1.587101691E+03	 3.480600098E+03
 1.587611112E+03	 3.475000000E+03
 1.588120478E+03	 3.495199951E+03
 1.588629791E+03	 3.468199951E+03
 1.589139049E+03	 3.467600098E+03
 1.589648253E+03	 3.460399902E+03
 1.590157403E+03	 3.501000000E+03
 1.590666499E+03	 3.451000000E+03
 1.591175541E+03	 3.523600098E+03
 1.591684529E+03	 3.473199951E+03
 1.592193462E+03	 3.475800049E+03
