1043.112314	1092.800049
1043.678594	1094.199951
1044.244816	1103.199951
1044.810979	1099.800049
1045.377084	1087.599976
1045.943132	1093.599976
1046.509121	1103.0
1047.075052	1097.400024
1047.640924	1101.199951
1048.206739	1087.199951
1048.772495	1089.800049
1049.338193	1085.199951
1049.903833	1075.0
1050.469415	1087.0
1051.034939	1085.199951
1051.600404	1078.800049
1052.165811	1082.199951
1052.731161	1086.599976
1053.296452	1084.400024
1053.861685	1083.0
1054.426859	1087.0
1054.991976	1085.400024
1055.557035	1078.599976
1056.122035	1082.199951
1056.686978	1077.800049
1057.251862	1089.0
1057.816688	1083.599976
1058.381456	1077.800049
1058.946166	1079.400024
1059.510818	1077.199951
1060.075411	1083.800049
1060.639947	1081.800049
1061.204425	1072.400024
1061.768844	1084.599976
1062.333206	1074.800049
1062.897509	1069.800049
1063.461754	1082.800049
1064.025942	1075.400024
1064.590071	1076.199951
1065.154142	1064.800049
1065.718155	1076.199951
1066.28211	1079.800049
1066.846007	1064.0
1067.409846	1072.599976
1067.973627	1065.800049
1068.53735	1074.199951
1069.101014	1057.400024
1069.664621	1060.599976
1070.22817	1070.199951
1070.791661	1067.800049
1071.355094	1058.800049
1071.918469	1062.400024
1072.481785	1066.800049
1073.045044	1065.400024
1073.608245	1067.199951
1074.171388	1068.599976
1074.734473	1065.0
1075.297499	1059.800049
1075.860468	1071.800049
1076.423379	1067.199951
1076.986232	1060.0
1077.549027	1073.199951
1078.111764	1050.400024
1078.674443	1073.800049
1079.237064	1064.400024
1079.799627	1068.0
1080.362132	1050.199951
1080.92458	1056.400024
1081.486969	1056.199951
1082.0493	1063.800049
1082.611574	1050.400024
1083.173789	1054.400024
1083.735947	1059.0
1084.298047	1057.199951
1084.860088	1055.199951
1085.422072	1056.400024
1085.983998	1065.599976
1086.545866	1057.199951
1087.107677	1049.199951
1087.669429	1052.199951
1088.231123	1041.0
1088.79276	1063.199951
1089.354338	1057.599976
1089.915859	1051.599976
1090.477322	1057.400024
1091.038727	1048.800049
1091.600074	1047.199951
1092.161363	1054.800049
1092.722595	1044.199951
1093.283768	1046.199951
1093.844884	1049.199951
1094.405942	1042.0
1094.966942	1040.800049
1095.527884	1054.599976
1096.088768	1046.599976
1096.649595	1045.800049
1097.210364	1043.800049
1097.771074	1045.599976
1098.331728	1046.0
1098.892323	1040.199951
1099.45286	1039.0
1100.01334	1046.0
1100.573762	1042.599976
1101.134126	1042.199951
1101.694432	1039.800049
1102.25468	1044.599976
1102.814871	1041.400024
1103.375004	1036.199951
1103.935079	1037.199951
1104.495096	1042.599976
1105.055056	1034.400024
1105.614958	1039.0
1106.174802	1036.800049
1106.734588	1025.199951
1107.294317	1045.0
1107.853987	1035.0
1108.4136	1034.400024
1108.973156	1034.800049
1109.532653	1032.599976
1110.092093	1044.599976
1110.651475	1041.0
1111.2108	1021.799988
1111.770066	1031.400024
1112.329275	1028.0
1112.888426	1042.199951
1113.44752	1029.400024
1114.006556	1030.400024
1114.565534	1042.599976
1115.124454	1028.0
1115.683317	1033.599976
1116.242122	1042.0
1116.800869	1040.400024
1117.359559	1034.400024
1117.918191	1024.199951
1118.476765	1027.400024
1119.035282	1030.800049
1119.593741	1027.400024
1120.152142	1026.400024
1120.710486	1028.400024
1121.268772	1027.0
1121.827	1027.400024
1122.385171	1043.599976
1122.943284	1025.599976
1123.50134	1026.199951
1124.059337	1029.599976
1124.617277	1022.799988
1125.17516	1023.599976
1125.732985	1027.0
1126.290752	1023.0
1126.848462	1023.200012
1127.406114	1027.800049
1127.963709	1022.599976
1128.521245	1028.400024
1129.078725	1025.400024
1129.636146	1035.400024
1130.193511	1029.0
1130.750817	1022.400024
1131.308066	1025.0
1131.865257	1027.800049
1132.422391	1032.800049
1132.979467	1029.599976
1133.536486	1020.0
1134.093447	1028.599976
1134.650351	1020.400024
1135.207197	1019.400024
1135.763985	1020.799988
1136.320716	1027.599976
1136.877389	1023.400024
1137.434005	1028.400024
1137.990563	1015.200012
1138.547064	1024.199951
1139.103507	1029.0
1139.659893	1031.800049
1140.216221	1027.199951
1140.772492	1028.199951
1141.328705	1031.800049
1141.884861	1019.400024
1142.440959	1019.599976
1142.997	1023.200012
1143.552983	1022.799988
1144.108908	1023.799988
1144.664777	1018.799988
1145.220587	1024.0
1145.776341	1016.799988
1146.332036	1026.0
1146.887675	1023.799988
1147.443256	1018.400024
1147.998779	1019.200012
1148.554245	1024.400024
1149.109653	1023.799988
1149.665004	1015.400024
1150.220298	1016.599976
1150.775534	1016.599976
1151.330713	1028.599976
1151.885834	1025.800049
1152.440898	1012.0
1152.995904	1023.400024
1153.550853	1027.199951
1154.105745	1013.599976
1154.660579	1005.0
1155.215356	1021.0
1155.770075	1020.400024
1156.324737	1015.0
1156.879341	1024.800049
1157.433889	1026.599976
1157.988378	1019.799988
1158.542811	1018.0
1159.097186	1022.200012
1159.651503	1019.200012
1160.205764	1024.199951
1160.759966	1025.599976
1161.314112	1014.200012
1161.8682	1025.199951
1162.422231	1014.200012
1162.976204	1011.0
1163.53012	1015.0
1164.083979	1012.400024
1164.637781	1007.799988
1165.191525	1014.799988
1165.745211	1010.799988
1166.298841	1023.400024
1166.852413	1010.400024
1167.405928	1019.599976
1167.959385	1016.799988
1168.512785	1010.400024
1169.066128	1021.400024
1169.619413	1012.200012
1170.172642	1014.799988
1170.725813	1010.200012
1171.278926	1013.200012
1171.831983	1016.400024
1172.384982	1021.599976
1172.937923	1011.200012
1173.490808	997.5999756
1174.043635	996.7999878
1174.596405	1008.200012
1175.149118	1016.200012
1175.701773	1012.599976
1176.254371	1014.0
1176.806912	1009.0
1177.359396	1014.799988
1177.911822	1012.400024
1178.464192	1014.599976
1179.016503	1018.0
1179.568758	1009.200012
1180.120956	1018.599976
1180.673096	1005.599976
1181.225179	1006.400024
1181.777205	1002.799988
1182.329173	1014.200012
1182.881085	1007.799988
1183.432939	1007.200012
1183.984736	1007.0
1184.536476	1005.400024
1185.088158	1009.799988
1185.639784	999.4000244
1186.191352	1011.599976
1186.742863	1006.200012
1187.294317	996.7999878
1187.845713	1011.200012
1188.397053	1011.200012
1188.948335	1003.0
1189.499561	1012.400024
1190.050729	1008.599976
1190.601839	1003.400024
1191.152893	1016.799988
1191.70389	1009.400024
1192.254829	993.7999878
1192.805712	1006.599976
1193.356537	1023.0
1193.907305	1005.400024
1194.458016	1006.400024
1195.00867	993.7999878
1195.559266	995.0
1196.109806	1008.799988
1196.660288	1014.599976
1197.210714	1004.599976
1197.761082	993.5999756
1198.311393	994.7999878
1198.861647	1008.799988
1199.411844	1004.400024
1199.961984	998.0
1200.512067	999.5999756
1201.062092	1009.400024
1201.612061	1002.799988
1202.161973	996.5999756
1202.711827	997.4000244
1203.261625	1000.799988
1203.811365	1004.599976
1204.361048	1005.200012
1204.910675	1007.0
1205.460244	994.2000122
1206.009756	998.7999878
1206.559211	1004.0
1207.10861	992.2000122
1207.657951	996.5999756
1208.207235	1006.0
1208.756462	993.0
1209.305632	995.0
1209.854745	994.4000244
1210.403801	999.5999756
1210.9528	1001.599976
1211.501742	1003.200012
1212.050627	1001.799988
1212.599455	986.2000122
1213.148226	993.2000122
1213.69694	1003.799988
1214.245597	1000.200012
1214.794197	991.4000244
1215.34274	987.7999878
1215.891227	1000.0
1216.439656	995.0
1216.988028	995.4000244
1217.536343	994.0
1218.084602	990.2000122
1218.632803	991.4000244
1219.180947	984.4000244
1219.729035	991.5999756
1220.277065	992.0
1220.825039	996.2000122
1221.372956	987.7999878
1221.920815	996.5999756
1222.468618	986.0
1223.016364	986.5999756
1223.564053	984.5999756
1224.111685	994.7999878
1224.65926	984.7999878
1225.206779	983.0
1225.75424	989.7999878
1226.301645	996.4000244
1226.848992	995.4000244
1227.396283	989.2000122
1227.943517	998.7999878
1228.490694	1000.0
1229.037814	977.2000122
1229.584877	993.0
1230.131883	992.7999878
1230.678833	985.2000122
1231.225725	986.7999878
1231.772561	994.2000122
1232.31934	995.5999756
1232.866062	992.2000122
1233.412727	986.0
1233.959336	985.0
1234.505887	985.2000122
1235.052382	990.0
1235.59882	983.2000122
1236.145201	983.0
1236.691525	989.5999756
1237.237793	988.2000122
1237.784003	990.4000244
1238.330157	975.0
1238.876254	987.2000122
1239.422295	984.5999756
1239.968278	978.0
1240.514205	978.4000244
1241.060074	985.5999756
1241.605888	981.2000122
1242.151644	984.0
1242.697343	979.5999756
1243.242986	980.5999756
1243.788572	981.7999878
1244.334101	989.5999756
1244.879574	982.5999756
1245.42499	989.4000244
1245.970349	991.2000122
1246.515651	989.0
1247.060896	988.4000244
1247.606085	977.2000122
1248.151217	976.5999756
1248.696292	974.5999756
1249.241311	982.4000244
1249.786273	983.0
1250.331178	981.5999756
1250.876026	977.4000244
1251.420818	981.5999756
1251.965553	979.7999878
1252.510231	983.5999756
1253.054853	974.2000122
1253.599418	984.2000122
1254.143926	973.2000122
1254.688377	980.4000244
1255.232772	980.4000244
1255.77711	981.4000244
1256.321392	975.2000122
1256.865617	984.7999878
1257.409785	980.7999878
1257.953896	973.0
1258.497951	977.2000122
1259.041949	990.2000122
1259.585891	976.4000244
1260.129776	990.2000122
1260.673604	979.5999756
1261.217375	978.2000122
1261.76109	980.4000244
1262.304749	973.0
1262.84835	969.5999756
1263.391896	972.2000122
1263.935384	973.5999756
1264.478816	982.0
1265.022191	996.7999878
1265.56551	999.0
1266.108772	978.2000122
1266.651977	976.4000244
1267.195126	966.7999878
1267.738218	974.7999878
1268.281254	977.0
1268.824233	974.0
1269.367155	976.4000244
1269.910021	971.5999756
1270.452831	971.5999756
1270.995583	969.0
1271.53828	966.5999756
1272.080919	973.0
1272.623502	969.5999756
1273.166029	972.0
1273.708499	975.4000244
1274.250912	966.2000122
1274.793269	972.7999878
1275.33557	966.0
1275.877814	980.2000122
1276.420001	971.0
1276.962132	965.7999878
1277.504206	964.7999878
1278.046224	974.5999756
1278.588185	973.2000122
1279.13009	966.7999878
1279.671938	965.0
1280.21373	975.2000122
1280.755465	968.4000244
1281.297144	968.7999878
1281.838766	956.2000122
1282.380332	975.5999756
1282.921841	983.2000122
1283.463294	975.0
1284.004691	977.4000244
1284.546031	983.4000244
1285.087314	1067.800049
1285.628541	1263.199951
1286.169711	1093.800049
1286.710826	991.2000122
1287.251883	973.0
1287.792884	961.7999878
1288.333829	968.0
1288.874717	954.4000244
1289.415549	962.4000244
1289.956325	970.5999756
1290.497044	967.4000244
1291.037706	961.7999878
1291.578313	975.7999878
1292.118862	964.5999756
1292.659356	965.4000244
1293.199793	970.5999756
1293.740173	965.0
1294.280498	958.4000244
1294.820765	962.5999756
1295.360977	971.5999756
1295.901132	962.7999878
1296.44123	960.5999756
1296.981273	961.7999878
1297.521259	968.0
1298.061188	960.5999756
1298.601061	951.5999756
1299.140878	961.7999878
1299.680639	962.4000244
1300.220343	953.2000122
1300.75999	963.7999878
1301.299582	958.7999878
1301.839117	963.4000244
1302.378596	964.7999878
1302.918018	961.7999878
1303.457384	956.2000122
1303.996694	957.2000122
1304.535947	968.4000244
1305.075145	952.2000122
1305.614285	963.0
1306.15337	962.4000244
1306.692398	955.7999878
1307.23137	953.2000122
1307.770286	954.4000244
1308.309145	962.5999756
1308.847948	964.2000122
1309.386695	971.2000122
1309.925385	959.4000244
1310.464019	955.5999756
1311.002597	950.4000244
1311.541119	954.7999878
1312.079584	957.5999756
1312.617993	956.0
1313.156346	960.4000244
1313.694643	957.0
1314.232883	963.5999756
1314.771067	948.5999756
1315.309195	951.2000122
1315.847267	956.7999878
1316.385282	966.4000244
1316.923241	951.0
1317.461144	959.7999878
1317.998991	951.0
1318.536782	965.7999878
1319.074516	950.7999878
1319.612194	959.4000244
1320.149816	959.7999878
1320.687382	946.4000244
1321.224891	953.0
1321.762344	950.4000244
1322.299742	956.4000244
1322.837083	957.7999878
1323.374367	954.2000122
1323.911596	959.4000244
1324.448768	953.0
1324.985885	944.7999878
1325.522945	958.0
1326.059949	946.5999756
1326.596896	943.4000244
1327.133788	950.0
1327.670623	955.0
1328.207403	944.0
1328.744126	955.2000122
1329.280793	939.7999878
1329.817404	951.5999756
1330.353959	959.2000122
1330.890457	962.4000244
1331.4269	940.5999756
1331.963286	942.5999756
1332.499617	954.4000244
1333.035891	943.5999756
1333.572109	943.0
1334.108271	947.5999756
1334.644377	947.2000122
1335.180427	939.7999878
1335.71642	943.5999756
1336.252358	949.2000122
1336.78824	951.2000122
1337.324065	950.5999756
1337.859834	952.4000244
1338.395548	949.5999756
1338.931205	956.0
1339.466806	955.4000244
1340.002351	934.4000244
1340.537841	943.7999878
1341.073274	949.0
1341.608651	945.2000122
1342.143972	946.5999756
1342.679236	945.2000122
1343.214445	945.5999756
1343.749598	946.7999878
1344.284695	937.4000244
1344.819736	941.0
1345.354721	947.2000122
1345.88965	952.2000122
1346.424522	942.7999878
1346.959339	943.4000244
1347.4941	941.0
1348.028805	951.7999878
1348.563453	941.2000122
1349.098046	945.7999878
1349.632583	957.0
1350.167064	943.4000244
1350.701489	940.4000244
1351.235858	951.0
1351.770171	947.5999756
1352.304428	942.0
1352.838629	937.2000122
1353.372774	942.5999756
1353.906863	935.4000244
1354.440896	938.2000122
1354.974873	944.2000122
1355.508794	937.7999878
1356.04266	931.7999878
1356.576469	943.7999878
1357.110222	948.0
1357.64392	942.5999756
1358.177561	946.0
1358.711147	946.5999756
1359.244677	940.7999878
1359.778151	933.7999878
1360.311569	934.7999878
1360.844931	938.2000122
1361.378237	950.0
1361.911487	939.4000244
1362.444682	935.0
1362.97782	936.5999756
1363.510903	938.4000244
1364.043929	940.2000122
1364.5769	931.5999756
1365.109815	939.7999878
1365.642674	931.7999878
1366.175478	932.4000244
1366.708225	941.4000244
1367.240917	938.5999756
1367.773552	938.4000244
1368.306132	939.4000244
1368.838656	938.5999756
1369.371124	934.0
1369.903537	944.2000122
1370.435893	943.0
1370.968194	928.5999756
1371.500439	929.2000122
1372.032628	936.0
1372.564761	933.7999878
1373.096838	933.4000244
1373.62886	935.0
1374.160826	920.4000244
1374.692736	926.7999878
1375.22459	945.4000244
1375.756388	930.4000244
1376.288131	934.4000244
1376.819818	929.2000122
1377.351449	932.0
1377.883024	924.5999756
1378.414544	934.7999878
1378.946008	935.2000122
1379.477416	934.0
1380.008768	931.4000244
1380.540064	929.7999878
1381.071305	936.2000122
1381.60249	926.5999756
1382.133619	933.0
1382.664693	928.0
1383.195711	930.4000244
1383.726673	927.0
1384.257579	941.0
1384.78843	937.2000122
1385.319224	932.2000122
1385.849964	940.2000122
1386.380647	942.4000244
1386.911275	929.0
1387.441847	947.2000122
1387.972363	1000.799988
1388.502824	1326.800049
1389.033229	1264.0
1389.563578	974.5999756
1390.093872	939.2000122
1390.62411	939.4000244
1391.154292	928.7999878
1391.684419	936.0
1392.214489	924.0
1392.744505	919.2000122
1393.274464	917.7999878
1393.804368	922.7999878
1394.334216	930.7999878
1394.864009	922.7999878
1395.393746	930.0
1395.923427	925.2000122
1396.453053	931.7999878
1396.982623	920.4000244
1397.512138	924.5999756
1398.041597	925.5999756
1398.571	929.5999756
1399.100347	922.7999878
1399.629639	932.4000244
1400.158876	926.2000122
1400.688056	927.4000244
1401.217182	931.2000122
1401.746251	925.5999756
1402.275265	930.4000244
1402.804224	915.2000122
1403.333126	925.2000122
1403.861974	912.4000244
1404.390765	925.5999756
1404.919501	919.5999756
1405.448182	930.0
1405.976807	928.7999878
1406.505376	917.4000244
1407.03389	923.4000244
1407.562349	919.0
1408.090751	927.7999878
1408.619098	931.2000122
1409.14739	925.2000122
1409.675626	942.5999756
1410.203807	959.2000122
1410.731932	930.4000244
1411.260001	930.2000122
1411.788015	918.5999756
1412.315974	922.0
1412.843877	919.0
1413.371725	921.4000244
1413.899516	921.0
1414.427253	927.2000122
1414.954934	925.7999878
1415.482559	936.5999756
1416.010129	923.2000122
1416.537644	915.5999756
1417.065103	918.5999756
1417.592507	924.7999878
1418.119855	919.7999878
1418.647147	914.5999756
1419.174385	914.7999878
1419.701566	910.0
1420.228692	925.2000122
1420.755763	922.5999756
1421.282779	917.5999756
1421.809739	916.7999878
1422.336643	917.7999878
1422.863492	919.2000122
1423.390286	925.7999878
1423.917024	914.0
1424.443707	921.5999756
1424.970334	918.5999756
1425.496906	919.2000122
1426.023422	913.5999756
1426.549883	918.5999756
1427.076289	915.0
1427.602639	920.0
1428.128934	915.7999878
1428.655174	909.4000244
1429.181358	915.2000122
1429.707486	915.5999756
1430.23356	911.2000122
1430.759578	919.2000122
1431.28554	919.0
1431.811448	915.5999756
1432.337299	915.4000244
1432.863096	910.7999878
1433.388837	918.7999878
1433.914523	907.7999878
1434.440153	925.0
1434.965728	917.5999756
1435.491248	913.2000122
1436.016712	910.7999878
1436.542122	911.4000244
1437.067475	909.0
1437.592774	918.5999756
1438.118017	906.4000244
1438.643205	916.5999756
1439.168337	906.5999756
1439.693414	916.0
1440.218436	917.4000244
1440.743403	912.5999756
1441.268314	915.0
1441.79317	913.0
1442.31797	908.4000244
1442.842716	916.2000122
1443.367406	908.0
1443.892041	911.0
1444.41662	911.4000244
1444.941145	911.2000122
1445.465614	909.7999878
1445.990027	907.5999756
1446.514386	916.7999878
1447.038689	913.4000244
1447.562937	917.2000122
1448.08713	915.0
1448.611267	910.2000122
1449.13535	914.2000122
1449.659377	911.5999756
1450.183348	907.7999878
1450.707265	908.4000244
1451.231126	906.2000122
1451.754932	908.5999756
1452.278683	904.4000244
1452.802379	902.4000244
1453.32602	905.4000244
1453.849605	911.0
1454.373135	914.4000244
1454.89661	924.4000244
1455.42003	908.7999878
1455.943394	905.4000244
1456.466703	906.7999878
1456.989958	900.7999878
1457.513157	898.5999756
1458.0363	913.0
1458.559389	909.4000244
1459.082423	907.0
1459.605401	908.2000122
1460.128324	903.0
1460.651192	906.7999878
1461.174005	913.2000122
1461.696763	907.2000122
1462.219465	912.5999756
1462.742113	916.5999756
1463.264705	904.5999756
1463.787242	905.7999878
1464.309724	905.4000244
1464.832151	898.0
1465.354523	902.4000244
1465.87684	906.0
1466.399102	901.5999756
1466.921308	905.2000122
1467.443459	903.4000244
1467.965556	901.0
1468.487597	905.2000122
1469.009583	899.7999878
1469.531514	904.4000244
1470.05339	906.0
1470.575211	898.4000244
1471.096977	904.2000122
1471.618688	899.5999756
1472.140343	904.4000244
1472.661944	905.4000244
1473.18349	899.4000244
1473.70498	903.7999878
1474.226416	904.4000244
1474.747796	895.5999756
1475.269122	903.0
1475.790392	901.7999878
1476.311607	901.2000122
1476.832768	900.2000122
1477.353873	904.0
1477.874923	904.2000122
1478.395918	903.7999878
1478.916859	900.7999878
1479.437744	895.4000244
1479.958574	901.5999756
1480.479349	900.4000244
1481.00007	897.5999756
1481.520735	898.2000122
1482.041345	896.5999756
1482.5619	897.2000122
1483.082401	898.2000122
1483.602846	897.2000122
1484.123236	901.5999756
1484.643572	905.0
1485.163852	899.2000122
1485.684077	905.5999756
1486.204248	900.2000122
1486.724363	894.7999878
1487.244424	891.5999756
1487.76443	896.5999756
1488.28438	904.5999756
1488.804276	892.4000244
1489.324117	896.5999756
1489.843903	897.2000122
1490.363634	902.2000122
1490.88331	899.0
1491.402931	895.7999878
1491.922497	896.2000122
1492.442008	892.4000244
1492.961465	898.7999878
1493.480866	894.7999878
1494.000213	890.2000122
1494.519505	909.7999878
1495.038741	899.4000244
1495.557923	895.2000122
1496.07705	892.0
1496.596122	896.7999878
1497.11514	885.7999878
1497.634102	896.5999756
1498.15301	899.4000244
1498.671862	900.4000244
1499.19066	899.4000244
1499.709403	904.0
1500.228091	895.2000122
1500.746725	894.2000122
1501.265303	901.4000244
1501.783827	891.7999878
1502.302296	900.4000244
1502.820709	891.0
1503.339069	892.5999756
1503.857373	894.0
1504.375622	896.5999756
1504.893817	893.2000122
1505.411957	900.5999756
1505.930042	888.7999878
1506.448072	892.0
1506.966048	874.0
1507.483968	895.4000244
1508.001834	888.5999756
1508.519645	894.2000122
1509.037401	889.5999756
1509.555103	888.4000244
1510.07275	889.7999878
1510.590342	901.7999878
1511.107879	890.4000244
1511.625361	887.0
1512.142789	890.0
1512.660162	893.0
1513.17748	891.4000244
1513.694743	887.5999756
1514.211952	888.2000122
1514.729106	887.0
1515.246205	889.2000122
1515.76325	888.0
1516.280239	887.2000122
1516.797174	892.0
1517.314055	888.4000244
1517.83088	891.5999756
1518.347651	891.2000122
1518.864367	888.4000244
1519.381029	891.2000122
1519.897635	888.2000122
1520.414187	879.7999878
1520.930685	888.7999878
1521.447127	891.4000244
1521.963515	891.5999756
1522.479849	888.4000244
1522.996127	886.7999878
1523.512351	887.2000122
1524.028521	879.2000122
1524.544635	885.7999878
1525.060695	890.2000122
1525.576701	888.5999756
1526.092651	895.0
1526.608547	887.7999878
1527.124389	878.7999878
1527.640175	888.2000122
1528.155907	882.2000122
1528.671585	890.5999756
1529.187208	893.2000122
1529.702776	884.5999756
1530.218289	893.7999878
1530.733748	887.4000244
1531.249153	891.2000122
1531.764502	886.4000244
1532.279798	885.5999756
1532.795038	891.0
1533.310224	888.5999756
1533.825355	892.5999756
1534.340432	879.5999756
1534.855454	890.4000244
1535.370422	886.7999878
1535.885335	888.5999756
1536.400193	883.5999756
1536.914997	878.5999756
1537.429746	884.4000244
1537.944441	892.7999878
1538.459081	887.2000122
1538.973667	881.7999878
1539.488198	890.0
1540.002674	892.0
1540.517096	879.5999756
1541.031464	888.2000122
1541.545777	888.0
1542.060035	883.7999878
1542.574239	890.5999756
1543.088388	884.2000122
1543.602483	887.2000122
1544.116523	887.2000122
1544.630509	888.0
1545.14444	885.5999756
1545.658317	885.0
1546.172139	885.7999878
1546.685907	885.5999756
1547.19962	887.5999756
1547.713279	888.4000244
1548.226883	884.0
1548.740433	886.2000122
1549.253929	884.4000244
1549.76737	883.2000122
1550.280756	892.2000122
1550.794088	880.2000122
1551.307365	885.2000122
1551.820588	884.2000122
1552.333757	882.2000122
1552.846871	883.0
1553.359931	879.4000244
1553.872936	890.5999756
1554.385887	885.0
1554.898783	888.2000122
1555.411625	885.0
1555.924413	890.0
1556.437146	888.0
1556.949824	882.7999878
1557.462449	884.2000122
1557.975019	889.7999878
1558.487534	881.2000122
1558.999995	884.2000122
1559.512402	882.5999756
1560.024754	886.4000244
1560.537052	888.2000122
1561.049295	879.7999878
1561.561485	883.0
1562.073619	885.4000244
1562.5857	876.0
1563.097726	889.4000244
1563.609697	879.0
1564.121615	881.0
1564.633477	875.7999878
1565.145286	881.4000244
1565.65704	881.4000244
1566.16874	882.5999756
1566.680386	882.7999878
1567.191977	884.5999756
1567.703514	883.2000122
1568.214996	882.4000244
1568.726424	884.7999878
1569.237798	885.4000244
1569.749118	886.7999878
1570.260383	886.0
1570.771594	887.4000244
1571.28275	881.7999878
1571.793853	878.5999756
1572.304901	872.7999878
1572.815895	890.5999756
1573.326834	877.2000122
1573.837719	880.0
1574.34855	884.2000122
1574.859327	882.2000122
1575.370049	888.4000244
1575.880717	880.2000122
1576.391331	880.4000244
1576.90189	874.4000244
1577.412395	874.7999878
1577.922846	876.5999756
1578.433243	878.5999756
1578.943586	874.0
1579.453874	872.7999878
1579.964108	881.4000244
1580.474288	879.4000244
1580.984413	876.4000244
1581.494484	871.4000244
1582.004501	883.5999756
1582.514464	878.4000244
1583.024373	874.0
1583.534227	873.5999756
1584.044028	876.7999878
1584.553774	868.4000244
1585.063465	877.5999756
1585.573103	878.5999756
1586.082687	884.0
1586.592216	872.5999756
1587.101691	874.0
1587.611112	882.4000244
1588.120478	876.4000244
1588.629791	878.7999878
1589.139049	875.7999878
1589.648253	873.5999756
1590.157403	883.0
1590.666499	879.5999756
1591.175541	872.7999878
1591.684529	880.4000244
1592.193462	884.7999878
