1042.545976	1001.0
1043.112314	999.0
1043.678594	1004.200012
1044.244816	1005.599976
1044.810979	1004.200012
1045.377084	999.7999878
1045.943132	996.4000244
1046.509121	987.0
1047.075052	1007.599976
1047.640924	1005.200012
1048.206739	1001.799988
1048.772495	995.0
1049.338193	996.5999756
1049.903833	1003.200012
1050.469415	995.2000122
1051.034939	992.4000244
1051.600404	1001.799988
1052.165811	1002.599976
1052.731161	989.0
1053.296452	986.5999756
1053.861685	986.5999756
1054.426859	980.2000122
1054.991976	993.5999756
1055.557035	983.0
1056.122035	986.7999878
1056.686978	987.2000122
1057.251862	996.7999878
1057.816688	980.7999878
1058.381456	985.5999756
1058.946166	978.2000122
1059.510818	992.2000122
1060.075411	985.7999878
1060.639947	989.7999878
1061.204425	983.0
1061.768844	983.7999878
1062.333206	978.2000122
1062.897509	982.7999878
1063.461754	974.5999756
1064.025942	982.5999756
1064.590071	974.2000122
1065.154142	969.0
1065.718155	982.5999756
1066.28211	986.2000122
1066.846007	977.4000244
1067.409846	984.5999756
1067.973627	972.4000244
1068.53735	986.2000122
1069.101014	984.0
1069.664621	968.7999878
1070.22817	982.5999756
1070.791661	967.5999756
1071.355094	981.4000244
1071.918469	970.2000122
1072.481785	982.7999878
1073.045044	974.4000244
1073.608245	966.2000122
1074.171388	984.7999878
1074.734473	967.7999878
1075.297499	966.4000244
1075.860468	974.0
1076.423379	971.0
1076.986232	966.7999878
1077.549027	971.5999756
1078.111764	976.0
1078.674443	975.4000244
1079.237064	964.4000244
1079.799627	963.0
1080.362132	956.0
1080.92458	969.5999756
1081.486969	971.4000244
1082.0493	964.7999878
1082.611574	964.4000244
1083.173789	970.2000122
1083.735947	968.5999756
1084.298047	959.7999878
1084.860088	965.0
1085.422072	962.0
1085.983998	969.5999756
1086.545866	964.2000122
1087.107677	975.4000244
1087.669429	959.0
1088.231123	965.5999756
1088.79276	960.2000122
1089.354338	969.2000122
1089.915859	962.2000122
1090.477322	964.2000122
1091.038727	965.2000122
1091.600074	966.7999878
1092.161363	960.2000122
1092.722595	968.5999756
1093.283768	966.2000122
1093.844884	963.7999878
1094.405942	956.2000122
1094.966942	953.2000122
1095.527884	959.5999756
1096.088768	959.4000244
1096.649595	959.7999878
1097.210364	963.5999756
1097.771074	962.2000122
1098.331728	962.5999756
1098.892323	961.7999878
1099.45286	955.0
1100.01334	953.2000122
1100.573762	958.5999756
1101.134126	958.0
1101.694432	945.5999756
1102.25468	945.4000244
1102.814871	953.5999756
1103.375004	953.2000122
1103.935079	954.5999756
1104.495096	958.0
1105.055056	953.5999756
1105.614958	954.0
1106.174802	952.5999756
1106.734588	949.5999756
1107.294317	953.7999878
1107.853987	947.5999756
1108.4136	953.5999756
1108.973156	953.5999756
1109.532653	950.0
1110.092093	957.2000122
1110.651475	944.7999878
1111.2108	945.7999878
1111.770066	955.0
1112.329275	945.4000244
1112.888426	945.7999878
1113.44752	956.2000122
1114.006556	954.7999878
1114.565534	945.5999756
1115.124454	951.5999756
1115.683317	943.4000244
1116.242122	952.7999878
1116.800869	942.7999878
1117.359559	945.2000122
1117.918191	946.7999878
1118.476765	947.2000122
1119.035282	945.4000244
1119.593741	940.4000244
1120.152142	948.7999878
1120.710486	951.4000244
1121.268772	943.4000244
1121.827	945.5999756
1122.385171	939.7999878
1122.943284	941.0
1123.50134	948.0
1124.059337	953.2000122
1124.617277	932.2000122
1125.17516	939.2000122
1125.732985	944.5999756
1126.290752	931.4000244
1126.848462	943.7999878
1127.406114	941.2000122
1127.963709	948.4000244
1128.521245	936.7999878
1129.078725	947.7999878
1129.636146	947.2000122
1130.193511	939.0
1130.750817	933.2000122
1131.308066	940.4000244
1131.865257	938.2000122
1132.422391	949.2000122
1132.979467	941.5999756
1133.536486	946.5999756
1134.093447	939.2000122
1134.650351	953.5999756
1135.207197	935.7999878
1135.763985	944.7999878
1136.320716	933.5999756
1136.877389	941.4000244
1137.434005	938.5999756
1137.990563	937.5999756
1138.547064	941.2000122
1139.103507	934.2000122
1139.659893	935.5999756
1140.216221	944.4000244
1140.772492	936.5999756
1141.328705	936.2000122
1141.884861	942.0
1142.440959	937.7999878
1142.997	932.7999878
1143.552983	936.7999878
1144.108908	933.7999878
1144.664777	936.0
1145.220587	937.2000122
1145.776341	930.5999756
1146.332036	940.0
1146.887675	943.5999756
1147.443256	933.4000244
1147.998779	933.2000122
1148.554245	931.4000244
1149.109653	926.4000244
1149.665004	937.5999756
1150.220298	932.5999756
1150.775534	931.0
1151.330713	939.2000122
1151.885834	932.5999756
1152.440898	935.7999878
1152.995904	941.7999878
1153.550853	932.2000122
1154.105745	929.0
1154.660579	935.5999756
1155.215356	941.4000244
1155.770075	934.2000122
1156.324737	935.2000122
1156.879341	927.0
1157.433889	940.4000244
1157.988378	941.4000244
1158.542811	936.2000122
1159.097186	934.2000122
1159.651503	937.4000244
1160.205764	933.0
1160.759966	936.2000122
1161.314112	948.0
1161.8682	926.0
1162.422231	940.2000122
1162.976204	932.0
1163.53012	934.0
1164.083979	935.0
1164.637781	940.7999878
1165.191525	930.2000122
1165.745211	931.7999878
1166.298841	930.4000244
1166.852413	935.2000122
1167.405928	932.0
1167.959385	920.7999878
1168.512785	927.7999878
1169.066128	932.7999878
1169.619413	933.4000244
1170.172642	929.0
1170.725813	931.7999878
1171.278926	927.2000122
1171.831983	933.7999878
1172.384982	924.5999756
1172.937923	924.2000122
1173.490808	935.2000122
1174.043635	925.4000244
1174.596405	919.5999756
1175.149118	922.0
1175.701773	935.2000122
1176.254371	925.7999878
1176.806912	925.7999878
1177.359396	926.4000244
1177.911822	928.5999756
1178.464192	925.0
1179.016503	925.5999756
1179.568758	936.4000244
1180.120956	931.4000244
1180.673096	921.4000244
1181.225179	927.0
1181.777205	923.5999756
1182.329173	932.0
1182.881085	924.7999878
1183.432939	931.4000244
1183.984736	927.0
1184.536476	926.4000244
1185.088158	927.7999878
1185.639784	921.4000244
1186.191352	929.2000122
1186.742863	933.2000122
1187.294317	923.5999756
1187.845713	928.7999878
1188.397053	927.0
1188.948335	925.2000122
1189.499561	927.5999756
1190.050729	920.4000244
1190.601839	932.7999878
1191.152893	927.2000122
1191.70389	926.0
1192.254829	924.4000244
1192.805712	926.4000244
1193.907305	920.2000122
1194.458016	923.4000244
1195.00867	930.0
1195.559266	927.5999756
1196.109806	925.7999878
1196.660288	927.4000244
1197.210714	919.0
1197.761082	922.4000244
1198.311393	918.7999878
1198.861647	913.4000244
1199.411844	916.5999756
1199.961984	910.7999878
1200.512067	914.7999878
1201.062092	918.7999878
1201.612061	920.5999756
1202.161973	916.0
1202.711827	928.0
1203.261625	923.4000244
1203.811365	915.0
1204.361048	911.7999878
1204.910675	927.5999756
1205.460244	915.2000122
1206.009756	921.4000244
1206.559211	914.0
1207.10861	905.4000244
1207.657951	924.4000244
1208.207235	915.0
1208.756462	922.0
1209.305632	922.7999878
1209.854745	924.5999756
1210.403801	917.0
1210.9528	912.0
1211.501742	922.2000122
1212.050627	913.0
1212.599455	918.5999756
1213.148226	920.2000122
1213.69694	920.4000244
1214.245597	919.4000244
1214.794197	923.7999878
1215.34274	917.5999756
1215.891227	930.2000122
1216.439656	916.5999756
1216.988028	909.0
1217.536343	917.0
1218.084602	921.4000244
1218.632803	915.5999756
1219.180947	919.0
1219.729035	921.4000244
1220.277065	922.4000244
1220.825039	918.5999756
1221.372956	921.0
1221.920815	911.5999756
1222.468618	917.0
1223.016364	913.2000122
1223.564053	915.2000122
1224.111685	917.0
1224.65926	912.4000244
1225.206779	918.7999878
1225.75424	913.4000244
1226.301645	916.7999878
1226.848992	916.0
1227.396283	913.2000122
1227.943517	910.7999878
1228.490694	908.2000122
1229.037814	914.2000122
1229.584877	916.2000122
1230.131883	902.2000122
1230.678833	914.0
1231.225725	912.5999756
1231.772561	908.0
1232.31934	916.4000244
1232.866062	908.7999878
1233.412727	908.0
1233.959336	917.2000122
1234.505887	911.2000122
1235.052382	916.0
1235.59882	923.2000122
1236.145201	905.4000244
1236.691525	910.2000122
1237.237793	912.0
1237.784003	911.2000122
1238.330157	900.0
1238.876254	913.7999878
1239.422295	908.5999756
1239.968278	912.4000244
1240.514205	910.4000244
1241.060074	916.0
1241.605888	913.2000122
1242.151644	914.7999878
1242.697343	912.5999756
1243.242986	915.4000244
1243.788572	905.5999756
1244.334101	904.0
1244.879574	909.0
1245.42499	911.5999756
1245.970349	906.4000244
1246.515651	907.7999878
1247.060896	907.7999878
1247.606085	900.0
1248.151217	911.5999756
1248.696292	908.2000122
1249.241311	908.7999878
1249.786273	907.5999756
1250.331178	920.7999878
1250.876026	910.0
1251.420818	904.5999756
1251.965553	911.7999878
1252.510231	899.4000244
1253.054853	906.2000122
1253.599418	907.7999878
1254.143926	906.2000122
1254.688377	905.0
1255.232772	902.0
1255.77711	908.2000122
1256.321392	900.4000244
1256.865617	905.5999756
1257.409785	900.5999756
1257.953896	908.2000122
1258.497951	906.2000122
1259.041949	913.4000244
1259.585891	910.7999878
1260.129776	917.7999878
1260.673604	904.4000244
1261.217375	890.4000244
1261.76109	908.4000244
1262.304749	902.5999756
1262.84835	905.7999878
1263.391896	908.4000244
1263.935384	911.4000244
1264.478816	923.7999878
1265.022191	937.5999756
1265.56551	934.4000244
1266.108772	910.0
1266.651977	905.7999878
1267.195126	906.2000122
1267.738218	909.0
1268.281254	898.2000122
1268.824233	909.5999756
1269.367155	907.4000244
1269.910021	897.0
1270.452831	901.7999878
1270.995583	899.0
1271.53828	898.2000122
1272.080919	899.7999878
1272.623502	896.2000122
1273.166029	904.0
1273.708499	902.2000122
1274.250912	902.0
1274.793269	894.4000244
1275.33557	902.4000244
1275.877814	906.0
1276.420001	901.0
1276.962132	898.4000244
1277.504206	897.0
1278.046224	907.4000244
1278.588185	899.0
1279.13009	897.0
1279.671938	899.7999878
1280.21373	907.7999878
1280.755465	893.5999756
1281.297144	898.0
1281.838766	897.2000122
1282.380332	904.2000122
1282.921841	910.4000244
1283.463294	915.5999756
1284.004691	926.4000244
1284.546031	1005.200012
1285.087314	1324.599976
1285.628541	1366.199951
1286.169711	1017.0
1286.710826	924.0
1287.251883	914.7999878
1287.792884	897.5999756
1288.333829	901.0
1288.874717	901.4000244
1289.415549	903.5999756
1289.956325	888.0
1290.497044	903.0
1291.037706	892.0
1291.578313	896.7999878
1292.118862	898.2000122
1292.659356	894.5999756
1293.199793	890.0
1293.740173	895.7999878
1294.280498	890.2000122
1294.820765	898.5999756
1295.360977	898.7999878
1295.901132	891.0
1296.44123	896.7999878
1296.981273	902.5999756
1297.521259	902.5999756
1298.061188	885.0
1298.601061	897.0
1299.140878	892.4000244
1299.680639	893.5999756
1300.220343	891.5999756
1300.75999	895.5999756
1301.299582	890.5999756
1301.839117	885.5999756
1302.378596	892.5999756
1302.918018	889.5999756
1303.457384	893.2000122
1303.996694	899.7999878
1304.535947	894.4000244
1305.075145	897.2000122
1305.614285	888.0
1306.15337	891.0
1306.692398	887.5999756
1307.23137	892.4000244
1307.770286	894.2000122
1308.309145	890.4000244
1308.847948	895.7999878
1309.386695	892.0
1309.925385	895.4000244
1310.464019	891.7999878
1311.002597	895.4000244
1311.541119	884.7999878
1312.079584	887.5999756
1312.617993	895.2000122
1313.156346	892.2000122
1313.694643	888.0
1314.232883	888.0
1314.771067	882.2000122
1315.309195	890.4000244
1315.847267	890.2000122
1316.385282	886.0
1316.923241	890.2000122
1317.461144	889.2000122
1317.998991	883.0
1318.536782	888.0
1319.074516	889.0
1319.612194	878.2000122
1320.149816	887.0
1320.687382	885.7999878
1321.224891	890.7999878
1321.762344	881.2000122
1322.299742	884.2000122
1322.837083	884.2000122
1323.374367	899.2000122
1323.911596	888.5999756
1324.448768	890.0
1324.985885	882.5999756
1325.522945	888.7999878
1326.059949	890.0
1326.596896	886.4000244
1327.133788	879.4000244
1327.670623	878.0
1328.207403	875.2000122
1328.744126	887.7999878
1329.280793	882.4000244
1329.817404	879.2000122
1330.353959	885.2000122
1330.890457	886.4000244
1331.4269	891.4000244
1331.963286	886.0
1332.499617	883.4000244
1333.035891	884.7999878
1333.572109	891.7999878
1334.108271	883.2000122
1334.644377	878.5999756
1335.180427	879.2000122
1335.71642	884.2000122
1336.252358	878.4000244
1336.78824	889.5999756
1337.324065	877.2000122
1337.859834	873.4000244
1338.395548	875.2000122
1338.931205	883.5999756
1339.466806	876.5999756
1340.002351	882.0
1340.537841	878.2000122
1341.073274	881.2000122
1341.608651	880.4000244
1342.143972	887.4000244
1342.679236	877.4000244
1343.214445	883.0
1343.749598	882.0
1344.284695	884.0
1344.819736	878.4000244
1345.354721	881.2000122
1345.88965	882.4000244
1346.424522	887.5999756
1346.959339	879.0
1347.4941	875.4000244
1348.028805	869.5999756
1348.563453	875.2000122
1349.098046	874.4000244
1349.632583	881.4000244
1350.167064	874.2000122
1350.701489	882.7999878
1351.235858	876.4000244
1351.770171	877.4000244
1352.304428	877.4000244
1352.838629	870.5999756
1353.372774	879.4000244
1353.906863	878.0
1354.440896	877.2000122
1354.974873	878.4000244
1355.508794	883.5999756
1356.04266	878.5999756
1356.576469	874.5999756
1357.110222	875.7999878
1357.64392	874.7999878
1358.177561	876.4000244
1358.711147	870.5999756
1359.244677	877.7999878
1359.778151	876.5999756
1360.311569	871.2000122
1360.844931	866.4000244
1361.378237	874.2000122
1361.911487	863.4000244
1362.444682	871.2000122
1362.97782	869.0
1363.510903	877.4000244
1364.043929	881.7999878
1364.5769	873.5999756
1365.109815	874.2000122
1365.642674	871.0
1366.175478	874.0
1366.708225	872.0
1367.240917	876.4000244
1367.773552	870.2000122
1368.306132	873.2000122
1368.838656	879.0
1369.371124	872.5999756
1369.903537	884.4000244
1370.435893	884.0
1370.968194	868.4000244
1371.500439	870.0
1372.032628	872.0
1372.564761	864.0
1373.096838	873.2000122
1373.62886	876.2000122
1374.160826	872.0
1374.692736	873.4000244
1375.22459	868.2000122
1375.756388	871.5999756
1376.288131	875.4000244
1376.819818	878.4000244
1377.351449	873.2000122
1377.883024	869.2000122
1378.414544	872.0
1378.946008	869.7999878
1379.477416	875.0
1380.008768	870.2000122
1380.540064	867.2000122
1381.071305	865.7999878
1381.60249	866.4000244
1382.133619	874.5999756
1382.664693	868.5999756
1383.195711	868.4000244
1383.726673	874.2000122
1384.257579	863.7999878
1384.78843	872.5999756
1385.319224	881.2000122
1385.849964	881.2000122
1386.380647	886.2000122
1386.911275	890.2000122
1387.441847	933.0
1387.972363	1205.800049
1388.502824	1807.599976
1389.033229	1246.599976
1389.563578	933.4000244
1390.093872	885.0
1390.62411	883.5999756
1391.154292	867.4000244
1391.684419	866.5999756
1392.214489	879.0
1392.744505	864.7999878
1393.274464	876.5999756
1393.804368	871.2000122
1394.334216	868.5999756
1394.864009	868.2000122
1395.393746	866.5999756
1395.923427	862.7999878
1396.453053	870.7999878
1396.982623	869.2000122
1397.512138	869.4000244
1398.041597	869.5999756
1398.571	867.4000244
1399.100347	866.7999878
1399.629639	868.5999756
1400.158876	862.4000244
1400.688056	861.0
1401.217182	861.0
1401.746251	864.4000244
1402.275265	866.7999878
1402.804224	858.0
1403.333126	871.0
1403.861974	867.4000244
1404.390765	865.4000244
1404.919501	864.5999756
1405.448182	864.4000244
1405.976807	868.2000122
1406.505376	863.5999756
1407.03389	865.4000244
1407.562349	866.0
1408.090751	869.4000244
1408.619098	872.2000122
1409.14739	888.7999878
1409.675626	939.0
1410.203807	916.0
1410.731932	873.5999756
1411.260001	866.4000244
1411.788015	868.2000122
1412.315974	863.2000122
1412.843877	859.0
1413.371725	862.0
1413.899516	861.7999878
1414.427253	861.0
1414.954934	858.2000122
1415.482559	874.4000244
1416.010129	856.4000244
1416.537644	859.2000122
1417.065103	863.2000122
1417.592507	867.4000244
1418.119855	853.5999756
1418.647147	863.7999878
1419.174385	861.4000244
1419.701566	863.2000122
1420.228692	867.2000122
1420.755763	856.7999878
1421.282779	872.0
1421.809739	861.4000244
1422.336643	868.2000122
1422.863492	866.2000122
1423.390286	865.0
1423.917024	859.7999878
1424.443707	864.7999878
1424.970334	861.2000122
1425.496906	866.2000122
1426.023422	857.0
1426.549883	870.2000122
1427.076289	851.5999756
1427.602639	857.2000122
1428.128934	861.0
1428.655174	852.4000244
1429.181358	858.4000244
1429.707486	855.7999878
1430.23356	858.0
1430.759578	861.5999756
1431.28554	857.4000244
1431.811448	858.5999756
1432.337299	858.0
1432.863096	865.5999756
1433.388837	859.0
1433.914523	859.7999878
1434.440153	864.0
1434.965728	867.5999756
1435.491248	854.0
1436.016712	859.4000244
1436.542122	867.4000244
1437.067475	861.4000244
1437.592774	855.2000122
1438.118017	851.5999756
1438.643205	856.7999878
1439.168337	860.0
1439.693414	854.7999878
1440.218436	855.2000122
1440.743403	856.0
1441.268314	854.7999878
1441.79317	858.0
1442.31797	857.4000244
1442.842716	858.7999878
1443.367406	863.4000244
1443.892041	848.0
1444.41662	856.5999756
1444.941145	855.7999878
1445.465614	859.4000244
1445.990027	867.0
1446.514386	853.7999878
1447.038689	860.5999756
1447.562937	856.4000244
1448.08713	859.2000122
1448.611267	856.5999756
1449.13535	856.7999878
1449.659377	863.5999756
1450.183348	853.5999756
1450.707265	856.5999756
1451.231126	856.4000244
1451.754932	855.4000244
1452.278683	855.4000244
1452.802379	860.5999756
1453.32602	858.2000122
1453.849605	854.4000244
1454.373135	845.0
1454.89661	852.7999878
1455.42003	849.7999878
1455.943394	848.4000244
1456.466703	847.2000122
1456.989958	855.0
1457.513157	849.7999878
1458.0363	854.0
1458.559389	850.7999878
1459.082423	848.7999878
1459.605401	845.5999756
1460.128324	848.5999756
1460.651192	850.7999878
1461.174005	850.5999756
1461.696763	849.0
1462.219465	845.4000244
1462.742113	851.7999878
1463.264705	857.7999878
1463.787242	853.7999878
1464.309724	850.5999756
1464.832151	848.5999756
1465.354523	851.7999878
1465.87684	852.2000122
1466.399102	849.2000122
1466.921308	852.7999878
1467.443459	852.4000244
1467.965556	845.2000122
1468.487597	847.4000244
1469.009583	845.7999878
1469.531514	851.0
1470.05339	849.7999878
1470.575211	844.0
1471.096977	846.4000244
1471.618688	852.4000244
1472.140343	848.2000122
1472.661944	853.2000122
1473.18349	854.4000244
1473.70498	847.2000122
1474.226416	845.2000122
1474.747796	853.7999878
1475.269122	850.4000244
1475.790392	844.4000244
1476.311607	838.4000244
1476.832768	844.4000244
1477.353873	848.7999878
1477.874923	840.7999878
1478.395918	844.0
1478.916859	846.7999878
1479.437744	848.0
1479.958574	844.7999878
1480.479349	843.5999756
1481.00007	852.0
1481.520735	848.4000244
1482.041345	847.5999756
1482.5619	843.5999756
1483.082401	845.4000244
1483.602846	842.7999878
1484.123236	841.5999756
1484.643572	846.4000244
1485.163852	840.7999878
1485.684077	842.7999878
1486.204248	848.2000122
1486.724363	845.2000122
1487.244424	841.2000122
1487.76443	839.4000244
1488.28438	849.5999756
1488.804276	847.2000122
1489.324117	854.5999756
1489.843903	843.2000122
1490.363634	837.4000244
1490.88331	844.4000244
1491.402931	835.2000122
1491.922497	844.7999878
1492.442008	838.5999756
1492.961465	837.0
1493.480866	838.7999878
1494.000213	842.4000244
1494.519505	844.0
1495.038741	835.4000244
1495.557923	841.2000122
1496.07705	844.4000244
1496.596122	844.4000244
1497.11514	845.5999756
1497.634102	838.2000122
1498.15301	844.5999756
1498.671862	846.2000122
1499.19066	841.4000244
1499.709403	852.5999756
1500.228091	837.2000122
1500.746725	842.7999878
1501.265303	842.7999878
1501.783827	842.5999756
1502.302296	836.2000122
1502.820709	845.2000122
1503.339069	842.5999756
1503.857373	840.5999756
1504.375622	842.0
1504.893817	842.7999878
1505.411957	841.2000122
1505.930042	839.5999756
1506.448072	833.4000244
1506.966048	839.4000244
1507.483968	838.7999878
1508.001834	837.2000122
1508.519645	839.4000244
1509.037401	838.5999756
1509.555103	843.7999878
1510.07275	839.2000122
1510.590342	847.7999878
1511.107879	834.2000122
1511.625361	842.2000122
1512.142789	836.2000122
1512.660162	844.7999878
1513.17748	837.2000122
1513.694743	836.7999878
1514.211952	838.5999756
1514.729106	842.4000244
1515.246205	838.5999756
1515.76325	840.4000244
1516.280239	835.2000122
1516.797174	831.4000244
1517.314055	837.0
1517.83088	833.5999756
1518.347651	840.5999756
1518.864367	840.5999756
1519.381029	834.4000244
1519.897635	836.0
1520.414187	832.7999878
1520.930685	837.5999756
1521.447127	832.7999878
1521.963515	841.2000122
1522.479849	834.5999756
1522.996127	835.4000244
1523.512351	835.7999878
1524.028521	836.0
1524.544635	832.2000122
1525.060695	837.2000122
1525.576701	838.5999756
1526.092651	830.5999756
1526.608547	835.7999878
1527.124389	834.7999878
1527.640175	832.7999878
1528.155907	830.0
1528.671585	841.2000122
1529.187208	834.5999756
1529.702776	836.0
1530.218289	837.4000244
1530.733748	841.5999756
1531.249153	839.7999878
1531.764502	831.0
1532.279798	831.7999878
1532.795038	834.5999756
1533.310224	835.7999878
1533.825355	839.0
1534.340432	831.7999878
1534.855454	834.7999878
1535.370422	833.5999756
1535.885335	837.5999756
1536.400193	838.5999756
1536.914997	834.2000122
1537.429746	837.4000244
1537.944441	835.5999756
1538.459081	834.4000244
1538.973667	837.7999878
1539.488198	835.2000122
1540.002674	835.0
1540.517096	835.7999878
1541.031464	835.4000244
1541.545777	836.4000244
1542.060035	826.4000244
1542.574239	833.5999756
1543.088388	834.4000244
1543.602483	829.2000122
1544.116523	834.5999756
1544.630509	829.4000244
1545.14444	839.0
1545.658317	830.2000122
1546.172139	827.7999878
1546.685907	835.4000244
1547.19962	834.2000122
1547.713279	831.2000122
1548.226883	834.4000244
1548.740433	830.2000122
1549.253929	828.7999878
1549.76737	832.2000122
1550.280756	831.7999878
1550.794088	835.0
1551.307365	828.4000244
1551.820588	837.2000122
1552.333757	836.4000244
1552.846871	837.0
1553.359931	828.2000122
1553.872936	833.2000122
1554.385887	838.5999756
1554.898783	832.0
1555.411625	828.0
1555.924413	836.7999878
1556.437146	833.7999878
1556.949824	829.4000244
1557.462449	833.4000244
1557.975019	828.2000122
1558.487534	839.0
1558.999995	831.4000244
1559.512402	831.4000244
1560.024754	835.0
1560.537052	839.2000122
1561.049295	831.4000244
1561.561485	840.7999878
1562.073619	831.7999878
1562.5857	834.4000244
1563.097726	839.4000244
1563.609697	836.0
1564.121615	834.2000122
1564.633477	836.7999878
1565.145286	834.5999756
1565.65704	838.4000244
1566.16874	837.7999878
1566.680386	833.2000122
1567.191977	831.7999878
1567.703514	825.2000122
1568.214996	834.0
1568.726424	832.5999756
1569.237798	832.4000244
1569.749118	830.0
1570.260383	826.7999878
1570.771594	829.5999756
1571.28275	831.5999756
1571.793853	831.2000122
1572.304901	826.7999878
1572.815895	832.0
1573.326834	828.5999756
1573.837719	827.4000244
1574.34855	832.4000244
1574.859327	830.2000122
1575.370049	829.4000244
1575.880717	836.2000122
1576.391331	832.0
1576.90189	833.0
1577.412395	831.4000244
1577.922846	828.4000244
1578.433243	832.5999756
1578.943586	836.7999878
1579.453874	830.7999878
1579.964108	833.7999878
1580.474288	827.5999756
1580.984413	829.5999756
1581.494484	828.0
1582.004501	824.7999878
1582.514464	830.4000244
1583.024373	830.4000244
1583.534227	828.4000244
1584.044028	826.5999756
1584.553774	833.5999756
1585.063465	829.5999756
1585.573103	827.0
1586.082687	822.7999878
1586.592216	828.7999878
1587.101691	824.0
1587.611112	830.0
1588.120478	824.5999756
1588.629791	836.7999878
1589.139049	829.2000122
1589.648253	828.4000244
1590.157403	827.4000244
1590.666499	828.5999756
1591.175541	831.0
1591.684529	825.2000122
1592.193462	834.5999756
