1043.112314	3474.399902
1043.678594	3493.199951
1044.244816	3475.399902
1044.810979	3525.800049
1045.377084	3495.0
1045.943132	3486.199951
1046.509121	3496.399902
1047.075052	3481.800049
1047.640924	3490.199951
1048.206739	3488.800049
1048.772495	3471.399902
1049.338193	3499.399902
1049.903833	3465.199951
1050.469415	3491.0
1051.034939	3458.800049
1051.600404	3469.600098
1052.165811	3444.0
1052.731161	3462.0
1053.296452	3497.0
1053.861685	3459.800049
1054.426859	3487.800049
1054.991976	3474.0
1055.557035	3433.0
1056.122035	3464.199951
1056.686978	3454.399902
1057.251862	3464.199951
1057.816688	3456.0
1058.381456	3451.600098
1058.946166	3436.399902
1059.510818	3461.399902
1060.075411	3432.399902
1060.639947	3450.800049
1061.204425	3427.199951
1061.768844	3434.800049
1062.333206	3432.199951
1062.897509	3451.199951
1063.461754	3414.0
1064.025942	3444.199951
1064.590071	3405.800049
1065.154142	3435.199951
1065.718155	3416.0
1066.28211	3434.399902
1066.846007	3425.800049
1067.409846	3406.800049
1067.973627	3375.0
1068.53735	3401.0
1069.101014	3414.600098
1069.664621	3414.199951
1070.22817	3372.600098
1070.791661	3398.0
1071.355094	3384.199951
1071.918469	3389.199951
1072.481785	3380.399902
1073.045044	3417.199951
1073.608245	3368.0
1074.171388	3412.199951
1074.734473	3392.399902
1075.297499	3401.600098
1075.860468	3383.0
1076.423379	3400.199951
1076.986232	3349.800049
1077.549027	3386.0
1078.111764	3374.800049
1078.674443	3372.0
1079.237064	3362.399902
1079.799627	3381.199951
1080.362132	3379.199951
1080.92458	3360.199951
1081.486969	3368.600098
1082.0493	3372.199951
1082.611574	3340.800049
1083.173789	3366.199951
1083.735947	3340.800049
1084.298047	3376.399902
1084.860088	3343.800049
1085.422072	3368.800049
1085.983998	3349.399902
1086.545866	3331.199951
1087.107677	3307.600098
1087.669429	3362.0
1088.231123	3321.0
1088.79276	3315.199951
1089.354338	3319.199951
1089.915859	3327.800049
1090.477322	3331.800049
1091.038727	3323.800049
1091.600074	3304.800049
1092.161363	3304.0
1092.722595	3281.600098
1093.283768	3295.399902
1093.844884	3283.399902
1094.405942	3312.199951
1094.966942	3311.600098
1095.527884	3303.800049
1096.088768	3285.199951
1096.649595	3270.600098
1097.210364	3288.0
1097.771074	3297.600098
1098.331728	3268.600098
1098.892323	3291.199951
1099.45286	3247.199951
1100.01334	3285.199951
1100.573762	3285.0
1101.134126	3254.399902
1101.694432	3254.0
1102.25468	3245.199951
1102.814871	3244.199951
1103.375004	3261.399902
1103.935079	3263.399902
1104.495096	3248.199951
1105.055056	3250.199951
1105.614958	3235.600098
1106.174802	3220.199951
1106.734588	3232.199951
1107.294317	3207.0
1107.853987	3214.399902
1108.4136	3201.0
1108.973156	3227.199951
1109.532653	3210.600098
1110.092093	3235.0
1110.651475	3216.600098
1111.2108	3233.800049
1111.770066	3187.399902
1112.329275	3210.0
1112.888426	3175.600098
1113.44752	3240.199951
1114.006556	3183.399902
1114.565534	3202.800049
1115.124454	3164.399902
1115.683317	3168.800049
1116.242122	3192.600098
1116.800869	3204.800049
1117.359559	3193.0
1117.918191	3200.600098
1118.476765	3181.800049
1119.035282	3175.800049
1119.593741	3181.0
1120.152142	3197.600098
1120.710486	3196.199951
1121.268772	3162.199951
1121.827	3170.0
1122.385171	3209.399902
1122.943284	3167.399902
1123.50134	3187.800049
1124.059337	3172.600098
1124.617277	3188.800049
1125.17516	3162.0
1125.732985	3154.0
1126.290752	3169.600098
1126.848462	3184.600098
1127.406114	3181.199951
1127.963709	3180.199951
1128.521245	3137.0
1129.078725	3175.0
1129.636146	3128.399902
1130.193511	3153.399902
1130.750817	3159.800049
1131.308066	3186.399902
1131.865257	3137.199951
1132.422391	3153.399902
1132.979467	3153.399902
1133.536486	3156.0
1134.093447	3121.600098
1134.650351	3154.800049
1135.207197	3153.199951
1135.763985	3171.600098
1136.320716	3135.600098
1136.877389	3175.800049
1137.434005	3141.399902
1137.990563	3185.399902
1138.547064	3155.199951
1139.103507	3162.399902
1139.659893	3152.399902
1140.216221	3148.399902
1140.772492	3133.399902
1141.328705	3150.0
1141.884861	3141.199951
1142.440959	3159.199951
1142.997	3132.0
1143.552983	3150.199951
1144.108908	3134.199951
1144.664777	3111.600098
1145.220587	3131.600098
1145.776341	3138.0
1146.332036	3134.399902
1146.887675	3115.399902
1147.443256	3138.0
1147.998779	3143.600098
1148.554245	3132.399902
1149.109653	3133.600098
1149.665004	3134.600098
1150.220298	3138.199951
1150.775534	3155.600098
1151.330713	3152.600098
1151.885834	3131.0
1152.440898	3141.399902
1152.995904	3144.199951
1153.550853	3134.800049
1154.105745	3111.600098
1154.660579	3103.800049
1155.215356	3137.199951
1155.770075	3140.600098
1156.324737	3111.600098
1156.879341	3122.800049
1157.433889	3104.199951
1157.988378	3125.199951
1158.542811	3142.0
1159.097186	3109.800049
1159.651503	3122.600098
1160.205764	3119.199951
1160.759966	3111.199951
1161.314112	3093.199951
1161.8682	3135.0
1162.422231	3101.199951
1162.976204	3105.399902
1163.53012	3087.600098
1164.083979	3111.0
1164.637781	3094.199951
1165.191525	3113.800049
1165.745211	3088.399902
1166.298841	3092.800049
1166.852413	3103.0
1167.405928	3103.199951
1167.959385	3085.800049
1168.512785	3074.0
1169.066128	3070.800049
1169.619413	3091.600098
1170.172642	3069.399902
1170.725813	3094.399902
1171.278926	3071.399902
1171.831983	3073.600098
1172.384982	3057.800049
1172.937923	3095.0
1173.490808	3086.0
1174.043635	3076.399902
1174.596405	3056.800049
1175.149118	3074.399902
1175.701773	3080.0
1176.254371	3076.399902
1176.806912	3067.199951
1177.359396	3073.399902
1177.911822	3055.800049
1178.464192	3088.199951
1179.016503	3057.199951
1179.568758	3050.600098
1180.120956	3063.199951
1180.673096	3069.199951
1181.225179	3055.600098
1181.777205	3035.600098
1182.329173	3021.600098
1182.881085	3053.399902
1183.432939	3041.0
1183.984736	3007.0
1184.536476	3049.199951
1185.088158	3040.800049
1185.639784	3056.800049
1186.191352	3051.399902
1186.742863	3053.199951
1187.294317	3037.800049
1187.845713	3040.800049
1188.397053	3035.800049
1188.948335	3005.800049
1189.499561	3023.600098
1190.050729	3015.199951
1190.601839	3027.0
1191.152893	3038.800049
1191.70389	3038.0
1192.254829	3018.199951
1192.805712	3022.600098
1193.356537	3024.0
1193.907305	2994.0
1194.458016	3000.0
1195.00867	3031.199951
1195.559266	3024.199951
1196.109806	3033.0
1196.660288	3011.800049
1197.210714	3028.199951
1197.761082	3021.800049
1198.311393	2990.800049
1198.861647	2995.0
1199.411844	2990.800049
1199.961984	2983.199951
1200.512067	2992.800049
1201.062092	3000.199951
1201.612061	2988.600098
1202.161973	2992.199951
1202.711827	3004.0
1203.261625	2986.199951
1203.811365	2964.600098
1204.361048	2979.800049
1204.910675	3014.399902
1205.460244	2971.800049
1206.009756	2992.199951
1206.559211	2976.199951
1207.10861	2979.600098
1207.657951	2987.600098
1208.207235	2961.600098
1208.756462	2982.199951
1209.305632	2980.0
1209.854745	2974.600098
1210.403801	2969.600098
1210.9528	2961.199951
1211.501742	2968.199951
1212.050627	2971.800049
1212.599455	2945.800049
1213.148226	2941.0
1213.69694	2952.399902
1214.245597	2969.0
1214.794197	2974.399902
1215.34274	2949.800049
1215.891227	2939.0
1216.439656	2934.600098
1216.988028	2972.600098
1217.536343	2957.399902
1218.084602	2917.600098
1218.632803	2985.600098
1219.180947	2927.0
1219.729035	2959.399902
1220.277065	2939.399902
1220.825039	2954.0
1221.372956	2922.199951
1221.920815	2952.199951
1222.468618	2945.199951
1223.016364	2940.600098
1223.564053	2914.199951
1224.111685	2946.0
1224.65926	2919.0
1225.206779	2937.0
1225.75424	2923.600098
1226.301645	2910.600098
1226.848992	2936.600098
1227.396283	2913.800049
1227.943517	2918.199951
1228.490694	2913.199951
1229.037814	2900.600098
1229.584877	2929.800049
1230.131883	2920.0
1230.678833	2908.199951
1231.225725	2918.199951
1231.772561	2910.399902
1232.31934	2892.399902
1232.866062	2907.800049
1233.412727	2924.800049
1233.959336	2889.600098
1234.505887	2891.399902
1235.052382	2918.399902
1235.59882	2907.600098
1236.145201	2899.800049
1236.691525	2916.199951
1237.237793	2889.0
1237.784003	2932.0
1238.330157	2882.800049
1238.876254	2890.399902
1239.422295	2901.399902
1239.968278	2885.399902
1240.514205	2871.399902
1241.060074	2906.0
1241.605888	2897.199951
1242.151644	2878.600098
1242.697343	2879.0
1243.242986	2900.399902
1243.788572	2855.199951
1244.334101	2891.600098
1244.879574	2897.199951
1245.42499	2892.0
1245.970349	2874.0
1246.515651	2873.399902
1247.060896	2870.0
1247.606085	2883.0
1248.151217	2864.600098
1248.696292	2844.199951
1249.241311	2868.399902
1249.786273	2886.199951
1250.331178	2875.0
1250.876026	2855.800049
1251.420818	2864.399902
1251.965553	2861.199951
1252.510231	2885.0
1253.054853	2851.199951
1253.599418	2872.600098
1254.143926	2844.0
1254.688377	2853.399902
1255.232772	2843.199951
1255.77711	2853.0
1256.321392	2829.0
1256.865617	2843.800049
1257.409785	2850.199951
1257.953896	2842.600098
1258.497951	2845.600098
1259.041949	2836.0
1259.585891	2842.199951
1260.129776	2871.0
1260.673604	2833.800049
1261.217375	2851.199951
1261.76109	2837.0
1262.304749	2853.399902
1262.84835	2855.399902
1263.391896	2853.399902
1263.935384	2836.399902
1264.478816	2846.199951
1265.022191	2837.199951
1265.56551	2837.399902
1266.108772	2861.0
1266.651977	2821.399902
1267.195126	2833.399902
1267.738218	2839.0
1268.281254	2852.0
1268.824233	2821.800049
1269.367155	2810.0
1269.910021	2826.800049
1270.452831	2848.0
1270.995583	2842.600098
1271.53828	2824.399902
1272.080919	2809.199951
1272.623502	2814.399902
1273.166029	2800.199951
1273.708499	2822.199951
1274.250912	2808.800049
1274.793269	2793.600098
1275.33557	2827.199951
1275.877814	2811.399902
1276.420001	2778.199951
1276.962132	2802.0
1277.504206	2800.600098
1278.046224	2781.0
1278.588185	2800.800049
1279.13009	2796.0
1279.671938	2808.600098
1280.21373	2753.600098
1280.755465	2809.399902
1281.297144	2795.0
1281.838766	2797.600098
1282.380332	2803.800049
1282.921841	2800.800049
1283.463294	2771.600098
1284.004691	2800.399902
1284.546031	2895.800049
1285.087314	2966.399902
1285.628541	2897.0
1286.169711	2801.600098
1286.710826	2783.600098
1287.251883	2776.199951
1287.792884	2760.600098
1288.333829	2782.800049
1288.874717	2754.399902
1289.415549	2790.600098
1289.956325	2766.399902
1290.497044	2777.600098
1291.037706	2791.600098
1291.578313	2760.600098
1292.118862	2739.600098
1292.659356	2777.800049
1293.199793	2780.399902
1293.740173	2782.199951
1294.280498	2766.800049
1294.820765	2783.399902
1295.360977	2745.600098
1295.901132	2758.600098
1296.44123	2749.600098
1296.981273	2747.199951
1297.521259	2741.199951
1298.061188	2724.600098
1298.601061	2746.0
1299.140878	2719.800049
1299.680639	2758.600098
1300.220343	2716.0
1300.75999	2731.0
1301.299582	2717.399902
1301.839117	2739.399902
1302.378596	2701.600098
1302.918018	2741.0
1303.457384	2738.600098
1303.996694	2769.800049
1304.535947	2728.800049
1305.075145	2730.800049
1305.614285	2729.800049
1306.15337	2731.800049
1306.692398	2720.199951
1307.23137	2745.600098
1307.770286	2711.399902
1308.309145	2701.800049
1308.847948	2719.600098
1309.386695	2695.0
1309.925385	2737.0
1310.464019	2703.0
1311.002597	2712.600098
1311.541119	2718.199951
1312.079584	2697.199951
1312.617993	2678.199951
1313.156346	2714.600098
1313.694643	2697.399902
1314.232883	2704.800049
1314.771067	2690.600098
1315.309195	2710.399902
1315.847267	2681.399902
1316.385282	2704.199951
1316.923241	2671.399902
1317.461144	2694.600098
1317.998991	2703.399902
1318.536782	2689.199951
1319.074516	2685.800049
1319.612194	2690.0
1320.149816	2682.800049
1320.687382	2669.600098
1321.224891	2692.800049
1321.762344	2681.399902
1322.299742	2708.0
1322.837083	2676.199951
1323.374367	2701.199951
1323.911596	2695.199951
1324.448768	2691.399902
1324.985885	2662.0
1325.522945	2663.600098
1326.059949	2644.600098
1326.596896	2707.199951
1327.133788	2656.399902
1327.670623	2669.399902
1328.207403	2645.800049
1328.744126	2662.800049
1329.280793	2665.0
1329.817404	2675.199951
1330.353959	2665.600098
1330.890457	2667.199951
1331.4269	2652.0
1331.963286	2634.0
1332.499617	2663.0
1333.035891	2663.399902
1333.572109	2663.600098
1334.108271	2641.399902
1334.644377	2669.0
1335.180427	2649.600098
1335.71642	2632.199951
1336.252358	2649.600098
1336.78824	2644.800049
1337.324065	2651.399902
1337.859834	2649.0
1338.395548	2652.800049
1338.931205	2640.399902
1339.466806	2632.399902
1340.002351	2658.800049
1340.537841	2646.399902
1341.073274	2655.199951
1341.608651	2645.600098
1342.143972	2623.199951
1342.679236	2640.600098
1343.214445	2608.399902
1343.749598	2640.0
1344.284695	2618.199951
1344.819736	2634.199951
1345.354721	2623.399902
1345.88965	2647.199951
1346.424522	2595.600098
1346.959339	2640.399902
1347.4941	2605.600098
1348.028805	2630.199951
1348.563453	2631.399902
1349.098046	2637.800049
1349.632583	2625.199951
1350.167064	2620.399902
1350.701489	2629.399902
1351.235858	2612.600098
1351.770171	2606.800049
1352.304428	2612.600098
1352.838629	2617.800049
1353.372774	2595.0
1353.906863	2623.600098
1354.440896	2604.0
1354.974873	2605.199951
1355.508794	2620.0
1356.04266	2591.800049
1356.576469	2602.399902
1357.110222	2606.399902
1357.64392	2585.399902
1358.177561	2583.600098
1358.711147	2595.600098
1359.244677	2589.0
1359.778151	2591.399902
1360.311569	2592.600098
1360.844931	2579.600098
1361.378237	2572.0
1361.911487	2573.0
1362.444682	2585.600098
1362.97782	2587.399902
1363.510903	2574.600098
1364.043929	2587.600098
1364.5769	2574.199951
1365.109815	2612.800049
1365.642674	2561.399902
1366.175478	2601.0
1366.708225	2583.399902
1367.240917	2590.600098
1367.773552	2577.199951
1368.306132	2590.199951
1368.838656	2559.800049
1369.371124	2564.600098
1369.903537	2586.800049
1370.435893	2576.199951
1370.968194	2534.199951
1371.500439	2562.0
1372.032628	2571.600098
1372.564761	2554.199951
1373.096838	2548.399902
1373.62886	2561.199951
1374.160826	2593.0
1374.692736	2577.199951
1375.22459	2578.399902
1375.756388	2537.0
1376.288131	2560.800049
1376.819818	2549.399902
1377.351449	2558.600098
1377.883024	2542.600098
1378.414544	2547.800049
1378.946008	2553.199951
1379.477416	2555.0
1380.008768	2581.800049
1380.540064	2537.399902
1381.071305	2559.399902
1381.60249	2532.0
1382.133619	2555.0
1382.664693	2543.399902
1383.195711	2547.800049
1383.726673	2555.600098
1384.257579	2549.399902
1384.78843	2538.800049
1385.319224	2535.0
1385.849964	2548.399902
1386.380647	2550.600098
1386.911275	2569.600098
1387.441847	2602.600098
1387.972363	2741.399902
1388.502824	2888.800049
1389.033229	2626.399902
1389.563578	2545.600098
1390.093872	2541.399902
1390.62411	2503.800049
1391.154292	2528.0
1391.684419	2512.600098
1392.214489	2534.0
1392.744505	2540.399902
1393.274464	2527.800049
1393.804368	2523.399902
1394.334216	2538.399902
1394.864009	2503.0
1395.393746	2534.800049
1395.923427	2522.800049
1396.453053	2511.199951
1396.982623	2488.199951
1397.512138	2517.800049
1398.041597	2515.800049
1398.571	2498.199951
1399.100347	2504.600098
1399.629639	2533.199951
1400.158876	2528.0
1400.688056	2525.600098
1401.217182	2483.399902
1401.746251	2486.800049
1402.275265	2491.0
1402.804224	2516.0
1403.333126	2514.399902
1403.861974	2495.199951
1404.390765	2499.199951
1404.919501	2505.600098
1405.448182	2491.399902
1405.976807	2488.600098
1406.505376	2510.600098
1407.03389	2472.600098
1407.562349	2498.800049
1408.090751	2496.0
1408.619098	2530.0
1409.14739	2505.800049
1409.675626	2528.199951
1410.203807	2523.0
1410.731932	2483.199951
1411.260001	2491.399902
1411.788015	2498.399902
1412.315974	2488.800049
1412.843877	2476.399902
1413.371725	2497.0
1413.899516	2486.800049
1414.427253	2493.0
1414.954934	2514.800049
1415.482559	2516.399902
1416.010129	2462.800049
1416.537644	2451.0
1417.065103	2496.800049
1417.592507	2461.600098
1418.119855	2489.0
1418.647147	2444.0
1419.174385	2490.0
1419.701566	2464.199951
1420.228692	2471.199951
1420.755763	2474.399902
1421.282779	2462.0
1421.809739	2464.0
1422.336643	2479.399902
1422.863492	2474.0
1423.390286	2476.399902
1423.917024	2476.0
1424.443707	2474.399902
1424.970334	2466.0
1425.496906	2473.600098
1426.023422	2464.0
1426.549883	2477.800049
1427.076289	2478.399902
1427.602639	2447.399902
1428.128934	2472.199951
1428.655174	2454.0
1429.181358	2459.199951
1429.707486	2467.199951
1430.23356	2457.600098
1430.759578	2447.199951
1431.28554	2459.800049
1431.811448	2457.0
1432.337299	2434.600098
1432.863096	2439.0
1433.388837	2444.600098
1433.914523	2459.399902
1434.440153	2470.800049
1434.965728	2457.399902
1435.491248	2461.399902
1436.016712	2428.399902
1436.542122	2458.199951
1437.067475	2437.399902
1437.592774	2430.600098
1438.118017	2438.600098
1438.643205	2438.0
1439.168337	2447.399902
1439.693414	2430.399902
1440.218436	2417.600098
1440.743403	2457.600098
1441.268314	2426.800049
1441.79317	2421.0
1442.31797	2440.0
1442.842716	2430.399902
1443.367406	2420.600098
1443.892041	2429.0
1444.41662	2430.399902
1444.941145	2423.399902
1445.465614	2429.800049
1445.990027	2428.600098
1446.514386	2432.199951
1447.038689	2424.399902
1447.562937	2421.399902
1448.08713	2410.600098
1448.611267	2398.199951
1449.13535	2422.199951
1449.659377	2429.199951
1450.183348	2430.399902
1450.707265	2421.800049
1451.231126	2399.800049
1451.754932	2396.800049
1452.278683	2418.0
1452.802379	2422.199951
1453.32602	2416.800049
1453.849605	2414.600098
1454.373135	2412.399902
1454.89661	2410.800049
1455.42003	2411.0
1455.943394	2400.600098
1456.466703	2412.199951
1456.989958	2396.199951
1457.513157	2405.600098
1458.0363	2386.0
1458.559389	2397.0
1459.082423	2399.600098
1459.605401	2403.600098
1460.128324	2373.0
1460.651192	2420.600098
1461.174005	2384.800049
1461.696763	2406.0
1462.219465	2384.399902
1462.742113	2401.0
1463.264705	2400.399902
1463.787242	2401.0
1464.309724	2403.399902
1464.832151	2398.600098
1465.354523	2388.199951
1465.87684	2384.399902
1466.399102	2373.600098
1466.921308	2390.800049
1467.443459	2380.600098
1467.965556	2379.600098
1468.487597	2384.600098
1469.009583	2375.199951
1469.531514	2371.199951
1470.05339	2376.0
1470.575211	2378.0
1471.096977	2384.800049
1471.618688	2375.0
1472.140343	2361.600098
1472.661944	2382.399902
1473.18349	2361.0
1473.70498	2361.600098
1474.226416	2381.600098
1474.747796	2378.800049
1475.269122	2364.600098
1475.790392	2344.800049
1476.311607	2377.600098
1476.832768	2362.199951
1477.353873	2358.800049
1477.874923	2358.399902
1478.395918	2368.0
1478.916859	2357.600098
1479.437744	2371.199951
1479.958574	2349.0
1480.479349	2340.800049
1481.00007	2363.0
1481.520735	2351.600098
1482.041345	2351.199951
1482.5619	2334.600098
1483.082401	2335.800049
1483.602846	2363.399902
1484.123236	2365.399902
1484.643572	2350.399902
1485.163852	2339.800049
1485.684077	2338.800049
1486.204248	2344.0
1486.724363	2353.600098
1487.244424	2337.199951
1487.76443	2313.0
1488.28438	2336.600098
1488.804276	2327.199951
1489.324117	2327.399902
1489.843903	2316.399902
1490.363634	2348.399902
1490.88331	2325.399902
1491.402931	2326.600098
1491.922497	2326.399902
1492.442008	2327.399902
1492.961465	2312.199951
1493.480866	2324.199951
1494.000213	2318.800049
1494.519505	2326.199951
1495.038741	2324.0
1495.557923	2325.399902
1496.07705	2305.199951
1496.596122	2305.800049
1497.11514	2313.399902
1497.634102	2322.399902
1498.15301	2341.199951
1498.671862	2345.600098
1499.19066	2324.800049
1499.709403	2329.0
1500.228091	2331.0
1500.746725	2293.800049
1501.265303	2322.600098
1501.783827	2318.399902
1502.302296	2303.199951
1502.820709	2315.399902
1503.339069	2309.399902
1503.857373	2306.600098
1504.375622	2280.199951
1504.893817	2288.0
1505.411957	2314.199951
1505.930042	2299.0
1506.448072	2283.800049
1506.966048	2301.600098
1507.483968	2285.800049
1508.001834	2281.0
1508.519645	2309.800049
1509.037401	2274.800049
1509.555103	2289.199951
1510.07275	2287.800049
1510.590342	2304.800049
1511.107879	2299.800049
1511.625361	2278.0
1512.142789	2291.0
1512.660162	2274.399902
1513.17748	2304.0
1513.694743	2273.0
1514.211952	2282.0
1514.729106	2293.199951
1515.246205	2302.199951
1515.76325	2278.199951
1516.280239	2291.399902
1516.797174	2282.0
1517.314055	2276.199951
1517.83088	2271.600098
1518.347651	2279.600098
1518.864367	2300.199951
1519.381029	2279.199951
1519.897635	2302.800049
1520.414187	2249.600098
1520.930685	2281.800049
1521.447127	2283.399902
1521.963515	2285.399902
1522.479849	2286.800049
1522.996127	2272.199951
1523.512351	2273.800049
1524.028521	2268.600098
1524.544635	2275.0
1525.060695	2270.800049
1525.576701	2285.800049
1526.092651	2278.199951
1526.608547	2281.199951
1527.124389	2267.199951
1527.640175	2286.800049
1528.155907	2265.199951
1528.671585	2288.600098
1529.187208	2258.399902
1529.702776	2255.199951
1530.218289	2262.800049
1530.733748	2257.600098
1531.249153	2252.600098
1531.764502	2253.199951
1532.279798	2263.399902
1532.795038	2254.800049
1533.310224	2252.0
1533.825355	2277.600098
1534.340432	2276.199951
1534.855454	2256.399902
1535.370422	2242.600098
1535.885335	2267.199951
1536.400193	2286.600098
1536.914997	2273.800049
1537.429746	2246.600098
1537.944441	2269.600098
1538.459081	2268.399902
1538.973667	2254.399902
1539.488198	2261.600098
1540.002674	2245.800049
1540.517096	2271.399902
1541.031464	2247.600098
1541.545777	2282.800049
1542.060035	2252.800049
1542.574239	2263.0
1543.088388	2236.199951
1543.602483	2268.800049
1544.116523	2253.0
1544.630509	2270.600098
1545.14444	2249.600098
1545.658317	2261.0
1546.172139	2246.0
1546.685907	2233.399902
1547.19962	2279.0
1547.713279	2252.199951
1548.226883	2272.800049
1548.740433	2234.0
1549.253929	2245.600098
1549.76737	2240.199951
1550.280756	2235.800049
1550.794088	2222.399902
1551.307365	2264.0
1551.820588	2237.0
1552.333757	2251.800049
1552.846871	2250.800049
1553.359931	2235.800049
1553.872936	2235.0
1554.385887	2254.399902
1554.898783	2248.199951
1555.411625	2226.199951
1555.924413	2248.800049
1556.437146	2246.0
1556.949824	2227.600098
1557.462449	2256.0
1557.975019	2236.800049
1558.487534	2246.399902
1558.999995	2231.399902
1559.512402	2226.399902
1560.024754	2231.199951
1560.537052	2241.600098
1561.049295	2220.0
1561.561485	2253.0
1562.073619	2227.0
1562.5857	2226.0
1563.097726	2222.0
1563.609697	2233.199951
1564.121615	2244.0
1564.633477	2220.199951
1565.145286	2241.399902
1565.65704	2218.199951
1566.16874	2213.0
1566.680386	2205.0
1567.191977	2240.600098
1567.703514	2215.800049
1568.214996	2236.0
1568.726424	2221.600098
1569.237798	2202.399902
1569.749118	2223.600098
1570.260383	2235.0
1570.771594	2233.800049
1571.28275	2204.600098
1571.793853	2239.199951
1572.304901	2232.0
1572.815895	2216.199951
1573.326834	2209.600098
1573.837719	2204.600098
1574.34855	2223.800049
1574.859327	2199.800049
1575.370049	2241.399902
1575.880717	2226.199951
1576.391331	2226.600098
1576.90189	2199.399902
1577.412395	2202.0
1577.922846	2210.800049
1578.433243	2211.800049
1578.943586	2224.0
1579.453874	2196.399902
1579.964108	2202.800049
1580.474288	2172.399902
1580.984413	2205.199951
1581.494484	2181.800049
1582.004501	2219.399902
1582.514464	2185.399902
1583.024373	2202.800049
1583.534227	2216.0
1584.044028	2194.399902
1584.553774	2207.399902
1585.063465	2178.0
1585.573103	2214.600098
1586.082687	2193.600098
1586.592216	2187.399902
1587.101691	2195.399902
1587.611112	2204.600098
1588.120478	2196.399902
1588.629791	2186.0
1589.139049	2217.199951
1589.648253	2205.399902
1590.157403	2217.600098
1590.666499	2182.800049
1591.175541	2191.800049
1591.684529	2177.600098
1592.193462	2201.399902
