1042.545976	1029.800049
1043.112314	1047.599976
1043.678594	1029.800049
1044.244816	1032.400024
1044.810979	1024.199951
1045.377084	1030.199951
1045.943132	1031.599976
1046.509121	1024.800049
1047.075052	1026.0
1047.640924	1020.400024
1048.206739	1022.599976
1048.772495	1017.599976
1049.338193	1034.599976
1049.903833	1018.0
1050.469415	1028.0
1051.034939	1018.0
1051.600404	1027.800049
1052.165811	1017.0
1052.731161	1016.0
1053.296452	1014.0
1053.861685	1013.0
1054.426859	1021.400024
1055.557035	1023.400024
1056.122035	1019.200012
1056.686978	1009.200012
1057.251862	1013.200012
1057.816688	1021.200012
1058.381456	1010.0
1058.946166	1009.799988
1059.510818	1004.200012
1060.075411	1001.400024
1060.639947	1011.599976
1061.204425	1006.599976
1061.768844	1011.400024
1062.333206	1014.400024
1062.897509	1001.0
1063.461754	1008.599976
1064.025942	1001.799988
1064.590071	1010.200012
1065.154142	1009.799988
1065.718155	999.2000122
1066.28211	1009.200012
1066.846007	1006.799988
1067.409846	1005.200012
1067.973627	1001.200012
1068.53735	993.4000244
1069.664621	996.7999878
1070.22817	1012.799988
1070.791661	1004.200012
1071.355094	998.5999756
1071.918469	1002.400024
1072.481785	1002.599976
1073.045044	1001.200012
1073.608245	998.4000244
1074.171388	995.2000122
1074.734473	993.7999878
1075.297499	1001.400024
1075.860468	992.4000244
1076.423379	995.0
1076.986232	988.2000122
1077.549027	996.5999756
1078.111764	996.5999756
1078.674443	1005.799988
1079.237064	991.2000122
1079.799627	998.4000244
1080.362132	997.2000122
1080.92458	999.5999756
1081.486969	992.4000244
1082.0493	984.4000244
1082.611574	984.7999878
1083.173789	994.5999756
1083.735947	1001.0
1084.298047	994.7999878
1084.860088	988.4000244
1085.422072	990.4000244
1085.983998	988.5999756
1086.545866	990.2000122
1087.107677	984.2000122
1087.669429	993.2000122
1088.231123	987.2000122
1088.79276	985.4000244
1089.354338	993.4000244
1089.915859	988.0
1090.477322	985.2000122
1091.038727	990.2000122
1091.600074	993.7999878
1092.161363	990.5999756
1092.722595	984.0
1093.283768	990.5999756
1093.844884	984.5999756
1094.405942	989.0
1094.966942	982.7999878
1095.527884	991.5999756
1096.088768	983.7999878
1096.649595	977.7999878
1097.210364	982.2000122
1097.771074	988.2000122
1098.331728	972.4000244
1098.892323	982.0
1099.45286	974.2000122
1100.01334	990.5999756
1100.573762	976.5999756
1101.134126	975.2000122
1101.694432	976.2000122
1102.25468	982.4000244
1102.814871	973.2000122
1103.375004	980.0
1103.935079	975.4000244
1104.495096	990.4000244
1105.055056	977.0
1105.614958	969.5999756
1106.174802	972.0
1106.734588	972.2000122
1107.294317	971.2000122
1107.853987	971.7999878
1108.4136	981.5999756
1108.973156	969.2000122
1109.532653	971.4000244
1110.092093	975.7999878
1110.651475	974.4000244
1111.2108	972.7999878
1111.770066	976.4000244
1112.329275	980.5999756
1112.888426	961.0
1113.44752	971.4000244
1114.006556	966.7999878
1114.565534	971.5999756
1115.124454	969.5999756
1115.683317	974.5999756
1116.242122	976.0
1116.800869	976.5999756
1117.359559	966.7999878
1117.918191	971.4000244
1118.476765	971.5999756
1119.035282	975.2000122
1119.593741	961.7999878
1120.152142	967.2000122
1120.710486	974.5999756
1121.268772	973.5999756
1121.827	975.7999878
1122.385171	965.0
1122.943284	968.7999878
1123.50134	969.2000122
1124.059337	969.0
1124.617277	970.4000244
1125.17516	960.2000122
1125.732985	965.0
1126.290752	972.7999878
1126.848462	965.2000122
1127.406114	966.5999756
1127.963709	957.4000244
1128.521245	959.4000244
1129.078725	974.2000122
1129.636146	955.5999756
1130.193511	975.0
1130.750817	965.7999878
1131.308066	964.7999878
1131.865257	967.4000244
1132.422391	964.0
1132.979467	966.7999878
1133.536486	948.0
1134.093447	963.7999878
1134.650351	958.2000122
1135.207197	959.7999878
1135.763985	974.0
1136.320716	967.4000244
1136.877389	973.2000122
1137.434005	960.5999756
1137.990563	963.5999756
1138.547064	969.0
1139.103507	962.2000122
1139.659893	964.2000122
1140.216221	970.0
1140.772492	964.7999878
1141.328705	953.5999756
1141.884861	953.4000244
1142.440959	965.5999756
1142.997	965.7999878
1143.552983	960.4000244
1144.108908	961.4000244
1144.664777	959.4000244
1145.220587	963.4000244
1145.776341	953.5999756
1146.332036	973.7999878
1146.887675	967.4000244
1147.443256	965.2000122
1147.998779	951.5999756
1148.554245	972.7999878
1149.109653	955.2000122
1149.665004	975.2000122
1150.220298	957.0
1150.775534	965.5999756
1151.330713	955.7999878
1151.885834	971.4000244
1152.440898	971.0
1152.995904	953.7999878
1153.550853	958.5999756
1154.105745	955.0
1154.660579	960.2000122
1155.215356	966.5999756
1155.770075	960.2000122
1156.324737	960.4000244
1156.879341	967.5999756
1157.433889	962.0
1157.988378	967.4000244
1158.542811	956.2000122
1159.097186	961.0
1159.651503	964.7999878
1160.205764	960.7999878
1160.759966	967.7999878
1161.314112	957.4000244
1161.8682	966.5999756
1162.422231	956.7999878
1162.976204	962.5999756
1163.53012	958.2000122
1164.083979	960.0
1164.637781	956.4000244
1165.191525	958.4000244
1165.745211	966.0
1166.298841	963.7999878
1166.852413	954.5999756
1167.405928	961.2000122
1167.959385	953.2000122
1168.512785	960.5999756
1169.066128	948.2000122
1169.619413	957.5999756
1170.172642	954.5999756
1170.725813	954.2000122
1171.278926	949.2000122
1171.831983	957.0
1172.384982	953.7999878
1172.937923	955.4000244
1173.490808	954.7999878
1174.043635	950.7999878
1174.596405	953.4000244
1175.149118	952.7999878
1175.701773	946.7999878
1176.254371	952.2000122
1176.806912	949.5999756
1177.359396	960.0
1177.911822	958.0
1178.464192	959.4000244
1179.016503	950.4000244
1179.568758	944.0
1180.120956	955.7999878
1180.673096	948.4000244
1181.225179	949.0
1181.777205	952.4000244
1182.329173	960.2000122
1182.881085	959.4000244
1183.432939	943.2000122
1183.984736	952.7999878
1184.536476	955.2000122
1185.088158	951.7999878
1185.639784	944.2000122
1186.191352	947.7999878
1186.742863	956.4000244
1187.294317	956.2000122
1187.845713	949.7999878
1188.397053	950.4000244
1188.948335	947.7999878
1189.499561	945.2000122
1190.050729	941.7999878
1190.601839	949.4000244
1191.152893	944.4000244
1191.70389	949.7999878
1192.254829	955.5999756
1192.805712	957.2000122
1193.356537	959.4000244
1193.907305	956.5999756
1194.458016	945.7999878
1195.00867	949.5999756
1195.559266	950.0
1196.109806	943.5999756
1196.660288	948.4000244
1197.210714	940.0
1197.761082	959.0
1198.311393	940.5999756
1198.861647	945.2000122
1199.411844	951.2000122
1199.961984	943.7999878
1200.512067	945.4000244
1201.062092	941.7999878
1201.612061	945.7999878
1202.161973	941.2000122
1202.711827	951.5999756
1203.261625	951.4000244
1203.811365	942.2000122
1204.361048	940.0
1204.910675	951.4000244
1205.460244	938.7999878
1206.009756	949.7999878
1206.559211	938.7999878
1207.10861	948.4000244
1207.657951	935.5999756
1208.207235	940.7999878
1208.756462	932.7999878
1209.305632	936.7999878
1209.854745	940.4000244
1210.403801	937.4000244
1210.9528	943.0
1211.501742	942.0
1212.050627	935.7999878
1212.599455	944.4000244
1213.148226	943.4000244
1213.69694	943.0
1214.245597	945.5999756
1214.794197	938.2000122
1215.34274	942.7999878
1215.891227	943.0
1216.439656	944.5999756
1216.988028	942.5999756
1217.536343	950.5999756
1218.084602	938.5999756
1218.632803	934.5999756
1219.180947	936.7999878
1219.729035	945.2000122
1220.277065	943.4000244
1220.825039	943.5999756
1221.372956	935.5999756
1221.920815	935.5999756
1222.468618	937.5999756
1223.016364	937.4000244
1223.564053	946.7999878
1224.111685	938.5999756
1224.65926	934.5999756
1225.206779	932.7999878
1225.75424	937.2000122
1226.301645	936.4000244
1226.848992	943.4000244
1227.396283	935.2000122
1227.943517	941.2000122
1228.490694	926.5999756
1229.037814	937.0
1229.584877	932.4000244
1230.131883	931.2000122
1230.678833	935.4000244
1231.225725	934.0
1231.772561	935.2000122
1232.31934	940.2000122
1232.866062	936.2000122
1233.412727	929.0
1233.959336	934.5999756
1234.505887	934.0
1235.052382	929.7999878
1235.59882	933.5999756
1236.145201	932.7999878
1236.691525	924.7999878
1237.237793	929.7999878
1237.784003	929.0
1238.330157	942.7999878
1238.876254	932.5999756
1239.422295	926.2000122
1239.968278	935.5999756
1240.514205	929.4000244
1241.060074	922.4000244
1241.605888	931.5999756
1242.151644	929.2000122
1242.697343	931.7999878
1243.242986	931.0
1243.788572	930.0
1244.334101	935.4000244
1244.879574	931.4000244
1245.42499	928.7999878
1245.970349	926.0
1246.515651	932.0
1247.060896	938.4000244
1247.606085	938.7999878
1248.151217	927.5999756
1248.696292	922.7999878
1249.241311	930.5999756
1249.786273	929.0
1250.331178	926.4000244
1250.876026	927.0
1251.420818	934.0
1251.965553	922.2000122
1252.510231	934.7999878
1253.054853	926.7999878
1253.599418	933.5999756
1254.143926	918.4000244
1254.688377	935.0
1255.232772	935.0
1255.77711	930.5999756
1256.321392	932.5999756
1256.865617	929.5999756
1257.409785	934.4000244
1257.953896	935.5999756
1258.497951	923.7999878
1259.041949	935.7999878
1259.585891	931.0
1260.129776	941.2000122
1260.673604	925.4000244
1261.217375	925.7999878
1261.76109	923.5999756
1262.304749	931.7999878
1262.84835	930.5999756
1263.391896	926.4000244
1263.935384	934.5999756
1264.478816	947.5999756
1265.022191	969.0
1265.56551	958.5999756
1266.108772	937.4000244
1266.651977	917.2000122
1267.195126	921.2000122
1267.738218	919.5999756
1268.281254	918.4000244
1268.824233	926.7999878
1269.367155	925.5999756
1269.910021	929.2000122
1270.452831	922.7999878
1270.995583	919.2000122
1271.53828	922.2000122
1272.080919	920.7999878
1272.623502	920.0
1273.166029	924.7999878
1273.708499	920.0
1274.250912	922.0
1274.793269	927.2000122
1275.33557	927.2000122
1275.877814	919.5999756
1276.420001	918.0
1276.962132	923.7999878
1277.504206	917.2000122
1278.046224	921.0
1278.588185	921.0
1279.13009	924.2000122
1279.671938	928.7999878
1280.21373	925.7999878
1280.755465	923.5999756
1281.297144	920.0
1281.838766	934.0
1282.380332	927.4000244
1282.921841	931.5999756
1283.463294	937.5999756
1284.004691	961.5999756
1284.546031	1026.599976
1285.087314	1381.400024
1285.628541	1601.800049
1286.169711	1145.199951
1286.710826	969.5999756
1287.251883	939.0
1287.792884	931.0
1288.333829	929.4000244
1288.874717	925.5999756
1289.415549	920.5999756
1289.956325	922.5999756
1290.497044	912.2000122
1291.037706	911.5999756
1291.578313	917.2000122
1292.118862	921.0
1292.659356	913.7999878
1293.199793	919.2000122
1293.740173	913.2000122
1294.280498	914.5999756
1294.820765	920.5999756
1295.360977	923.4000244
1295.901132	911.7999878
1296.44123	911.0
1296.981273	909.4000244
1297.521259	917.2000122
1298.061188	915.0
1298.601061	914.0
1299.140878	920.2000122
1299.680639	916.7999878
1300.220343	915.0
1300.75999	912.0
1301.299582	911.0
1301.839117	905.2000122
1302.378596	907.0
1302.918018	923.4000244
1303.457384	912.5999756
1303.996694	907.5999756
1304.535947	911.2000122
1305.075145	919.5999756
1305.614285	918.4000244
1306.15337	910.7999878
1306.692398	914.4000244
1307.23137	911.2000122
1307.770286	912.2000122
1308.309145	905.7999878
1308.847948	906.2000122
1309.386695	918.7999878
1309.925385	911.0
1310.464019	916.2000122
1311.002597	912.4000244
1311.541119	898.5999756
1312.079584	909.7999878
1312.617993	903.5999756
1313.156346	903.4000244
1313.694643	906.7999878
1314.232883	915.7999878
1314.771067	912.2000122
1315.309195	908.0
1315.847267	906.4000244
1316.385282	902.0
1316.923241	913.2000122
1317.461144	909.7999878
1317.998991	905.2000122
1318.536782	905.5999756
1319.074516	913.2000122
1319.612194	904.0
1320.149816	902.2000122
1320.687382	907.2000122
1321.224891	905.4000244
1321.762344	912.2000122
1322.299742	908.2000122
1322.837083	911.0
1323.374367	901.4000244
1323.911596	910.2000122
1324.448768	903.2000122
1324.985885	906.4000244
1325.522945	903.4000244
1326.059949	904.2000122
1326.596896	900.0
1327.133788	898.0
1327.670623	902.5999756
1328.207403	903.0
1328.744126	903.2000122
1329.280793	907.7999878
1329.817404	908.4000244
1330.353959	896.5999756
1330.890457	907.7999878
1331.4269	913.7999878
1331.963286	900.5999756
1332.499617	905.0
1333.035891	904.0
1333.572109	902.0
1334.108271	894.2000122
1334.644377	902.4000244
1335.180427	895.4000244
1335.71642	904.5999756
1336.252358	903.5999756
1336.78824	902.0
1337.324065	901.0
1337.859834	902.4000244
1338.395548	902.4000244
1338.931205	902.4000244
1339.466806	904.0
1340.002351	899.2000122
1340.537841	901.2000122
1341.073274	903.0
1341.608651	896.5999756
1342.143972	892.7999878
1342.679236	901.2000122
1343.214445	895.4000244
1343.749598	903.7999878
1344.284695	896.7999878
1344.819736	904.5999756
1345.354721	890.5999756
1345.88965	900.0
1346.424522	898.7999878
1346.959339	904.4000244
1347.4941	891.7999878
1348.028805	894.5999756
1348.563453	887.5999756
1349.098046	891.0
1349.632583	891.7999878
1350.167064	900.5999756
1350.701489	898.0
1351.235858	902.2000122
1351.770171	901.0
1352.304428	903.4000244
1352.838629	893.7999878
1353.372774	895.0
1353.906863	907.5999756
1354.440896	897.7999878
1354.974873	893.4000244
1355.508794	901.7999878
1356.04266	893.2000122
1356.576469	901.0
1357.110222	899.2000122
1357.64392	894.2000122
1358.177561	896.0
1358.711147	898.5999756
1359.244677	898.5999756
1359.778151	895.7999878
1360.311569	901.5999756
1360.844931	893.4000244
1361.378237	892.0
1361.911487	895.4000244
1362.444682	892.7999878
1362.97782	903.2000122
1363.510903	898.5999756
1364.043929	890.0
1364.5769	888.4000244
1365.109815	894.0
1365.642674	887.7999878
1366.175478	904.0
1366.708225	906.5999756
1367.240917	894.4000244
1367.773552	893.5999756
1368.306132	890.0
1368.838656	892.2000122
1369.371124	897.2000122
1369.903537	908.5999756
1370.435893	914.7999878
1370.968194	900.0
1371.500439	895.2000122
1372.032628	897.5999756
1372.564761	885.5999756
1373.096838	892.7999878
1373.62886	890.5999756
1374.160826	894.4000244
1374.692736	889.5999756
1375.22459	889.5999756
1375.756388	889.2000122
1376.288131	894.0
1376.819818	891.0
1377.351449	884.7999878
1377.883024	889.7999878
1378.414544	884.2000122
1378.946008	894.7999878
1379.477416	892.0
1380.008768	896.7999878
1380.540064	888.7999878
1381.071305	895.4000244
1381.60249	882.7999878
1382.133619	891.0
1382.664693	895.2000122
1383.195711	895.4000244
1383.726673	899.5999756
1384.257579	902.7999878
1384.78843	895.0
1385.319224	899.7999878
1385.849964	909.7999878
1386.380647	902.7999878
1386.911275	917.7999878
1387.441847	960.4000244
1387.972363	1213.800049
1388.502824	2079.199951
1389.033229	1658.800049
1389.563578	1023.799988
1390.093872	922.5999756
1390.62411	903.7999878
1391.154292	899.5999756
1391.684419	890.5999756
1392.214489	896.2000122
1392.744505	888.5999756
1393.274464	891.5999756
1393.804368	893.2000122
1394.334216	884.4000244
1394.864009	884.7999878
1395.393746	881.5999756
1395.923427	885.4000244
1396.453053	892.4000244
1396.982623	890.4000244
1397.512138	894.2000122
1398.041597	894.7999878
1398.571	882.2000122
1399.100347	889.2000122
1399.629639	881.7999878
1400.158876	893.4000244
1400.688056	880.2000122
1401.217182	889.7999878
1401.746251	884.5999756
1402.275265	884.5999756
1402.804224	883.5999756
1403.333126	897.5999756
1403.861974	884.7999878
1404.390765	877.5999756
1404.919501	887.2000122
1405.448182	886.2000122
1405.976807	888.0
1406.505376	886.7999878
1407.03389	881.2000122
1407.562349	881.5999756
1408.090751	898.7999878
1408.619098	892.4000244
1409.14739	905.2000122
1409.675626	960.7999878
1410.203807	958.7999878
1410.731932	904.4000244
1411.260001	896.0
1411.788015	882.4000244
1412.315974	883.0
1412.843877	884.4000244
1413.371725	886.7999878
1413.899516	887.5999756
1414.427253	883.4000244
1414.954934	887.4000244
1415.482559	886.7999878
1416.010129	880.2000122
1416.537644	878.7999878
1417.065103	879.7999878
1417.592507	879.5999756
1418.119855	885.7999878
1418.647147	880.0
1419.174385	882.5999756
1419.701566	881.0
1420.228692	885.7999878
1420.755763	889.4000244
1421.282779	883.7999878
1421.809739	883.2000122
1422.336643	878.7999878
1422.863492	877.5999756
1423.390286	876.7999878
1423.917024	883.2000122
1424.443707	875.2000122
1424.970334	887.0
1425.496906	879.7999878
1426.023422	881.4000244
1426.549883	892.5999756
1427.076289	887.7999878
1427.602639	880.7999878
1428.128934	881.4000244
1428.655174	876.5999756
1429.181358	879.4000244
1429.707486	883.7999878
1430.23356	869.7999878
1430.759578	878.4000244
1431.28554	878.5999756
1431.811448	875.2000122
1432.337299	874.2000122
1432.863096	876.4000244
1433.388837	885.4000244
1433.914523	878.7999878
1434.440153	882.0
1434.965728	878.0
1435.491248	883.4000244
1436.016712	876.0
1436.542122	877.4000244
1437.067475	875.7999878
1437.592774	877.4000244
1438.118017	867.2000122
1438.643205	878.7999878
1439.168337	874.2000122
1439.693414	872.2000122
1440.218436	874.5999756
1440.743403	874.2000122
1441.268314	875.7999878
1441.79317	880.0
1442.31797	888.4000244
1442.842716	869.4000244
1443.367406	879.4000244
1443.892041	875.0
1444.41662	871.7999878
1444.941145	881.0
1445.465614	869.2000122
1445.990027	874.2000122
1446.514386	874.4000244
1447.038689	866.5999756
1447.562937	877.2000122
1448.08713	878.2000122
1448.611267	862.0
1449.13535	875.0
1449.659377	877.5999756
1450.183348	868.0
1450.707265	875.5999756
1451.231126	872.7999878
1451.754932	875.0
1452.278683	875.5999756
1452.802379	870.2000122
1453.32602	875.5999756
1453.849605	870.5999756
1454.373135	876.2000122
1454.89661	876.0
1455.42003	869.5999756
1455.943394	865.5999756
1456.466703	881.7999878
1456.989958	862.7999878
1457.513157	870.0
1458.0363	863.0
1458.559389	869.7999878
1459.082423	867.4000244
1459.605401	868.4000244
1460.128324	870.4000244
1460.651192	872.2000122
1461.174005	870.7999878
1461.696763	869.0
1462.219465	869.0
1462.742113	876.0
1463.264705	866.7999878
1463.787242	875.5999756
1464.309724	875.7999878
1464.832151	869.0
1465.354523	871.2000122
1465.87684	867.5999756
1466.399102	866.4000244
1466.921308	860.7999878
1467.443459	862.2000122
1467.965556	869.4000244
1468.487597	868.5999756
1469.009583	867.2000122
1469.531514	871.2000122
1470.05339	870.0
1470.575211	877.0
1471.096977	863.5999756
1471.618688	866.5999756
1472.140343	872.5999756
1472.661944	866.5999756
1473.18349	862.4000244
1473.70498	869.4000244
1474.226416	862.4000244
1474.747796	868.2000122
1475.269122	866.2000122
1475.790392	858.7999878
1476.311607	869.2000122
1476.832768	869.0
1477.353873	861.2000122
1477.874923	865.7999878
1478.395918	869.2000122
1478.916859	865.2000122
1479.437744	867.5999756
1479.958574	863.2000122
1480.479349	866.4000244
1481.00007	866.2000122
1481.520735	866.4000244
1482.041345	865.5999756
1482.5619	869.4000244
1483.082401	865.0
1483.602846	866.5999756
1484.123236	857.7999878
1484.643572	861.0
1485.163852	861.5999756
1485.684077	867.7999878
1486.204248	859.0
1486.724363	865.0
1487.244424	866.2000122
1487.76443	867.0
1488.28438	854.2000122
1488.804276	854.4000244
1489.324117	862.4000244
1489.843903	862.5999756
1490.363634	858.7999878
1490.88331	857.5999756
1491.402931	859.5999756
1491.922497	853.4000244
1492.442008	864.4000244
1492.961465	859.2000122
1493.480866	862.4000244
1494.000213	858.4000244
1494.519505	861.2000122
1495.038741	859.5999756
1495.557923	868.5999756
1496.07705	858.5999756
1496.596122	857.4000244
1497.11514	858.7999878
1497.634102	856.2000122
1498.15301	857.5999756
1498.671862	864.5999756
1499.19066	858.2000122
1499.709403	871.2000122
1500.228091	857.4000244
1500.746725	855.5999756
1501.265303	867.5999756
1501.783827	860.4000244
1502.302296	859.5999756
1502.820709	856.7999878
1503.339069	858.2000122
1503.857373	859.7999878
1504.375622	854.2000122
1504.893817	858.0
1505.411957	852.2000122
1505.930042	859.0
1506.448072	859.7999878
1506.966048	865.5999756
1507.483968	856.5999756
1508.001834	861.2000122
1508.519645	859.5999756
1509.037401	846.4000244
1509.555103	853.0
1510.07275	857.2000122
1510.590342	872.4000244
1511.107879	859.5999756
1511.625361	850.0
1512.142789	856.0
1512.660162	850.7999878
1513.17748	844.2000122
1513.694743	857.2000122
1514.211952	860.7999878
1514.729106	852.7999878
1515.246205	857.4000244
1515.76325	865.7999878
1516.280239	851.0
1516.797174	856.5999756
1517.314055	853.2000122
1517.83088	860.5999756
1518.347651	857.4000244
1518.864367	856.4000244
1519.381029	858.7999878
1519.897635	859.2000122
1520.414187	848.5999756
1520.930685	857.2000122
1521.447127	856.4000244
1521.963515	858.4000244
1522.479849	851.0
1522.996127	856.4000244
1523.512351	855.2000122
1524.028521	846.2000122
1524.544635	855.5999756
1525.060695	855.5999756
1525.576701	861.0
1526.092651	854.5999756
1526.608547	859.0
1527.124389	852.5999756
1527.640175	854.4000244
1528.155907	857.5999756
1528.671585	859.0
1529.187208	851.4000244
1529.702776	852.5999756
1530.218289	855.2000122
1530.733748	853.4000244
1531.249153	851.7999878
1531.764502	845.4000244
1532.279798	859.2000122
1532.795038	848.5999756
1533.310224	849.4000244
1533.825355	854.2000122
1534.340432	847.5999756
1534.855454	850.5999756
1535.370422	855.4000244
1535.885335	856.0
1536.400193	847.2000122
1536.914997	848.0
1537.429746	855.7999878
1537.944441	854.2000122
1538.459081	854.5999756
1538.973667	850.7999878
1539.488198	851.0
1540.002674	851.2000122
1540.517096	853.0
1541.031464	853.5999756
1541.545777	850.2000122
1542.060035	852.5999756
1542.574239	859.7999878
1543.088388	857.0
1543.602483	855.2000122
1544.116523	846.5999756
1544.630509	852.7999878
1545.14444	854.2000122
1545.658317	849.4000244
1546.172139	847.2000122
1546.685907	850.2000122
1547.19962	848.0
1547.713279	846.4000244
1548.226883	854.4000244
1548.740433	851.0
1549.253929	850.7999878
1549.76737	847.5999756
1550.280756	847.5999756
1550.794088	850.0
1551.307365	847.4000244
1551.820588	849.0
1552.333757	848.5999756
1552.846871	847.2000122
1553.359931	851.2000122
1553.872936	851.7999878
1554.385887	852.4000244
1554.898783	853.0
1555.411625	852.4000244
1555.924413	853.4000244
1556.437146	855.0
1556.949824	849.2000122
1557.462449	848.0
1557.975019	851.0
1558.487534	852.5999756
1558.999995	848.4000244
1559.512402	844.4000244
1560.024754	844.7999878
1560.537052	847.7999878
1561.049295	847.2000122
1561.561485	849.7999878
1562.073619	853.2000122
1562.5857	850.7999878
1563.097726	857.5999756
1563.609697	851.4000244
1564.121615	853.2000122
1564.633477	845.2000122
1565.145286	844.5999756
1565.65704	849.0
1566.16874	844.4000244
1566.680386	854.4000244
1567.191977	844.0
1567.703514	843.2000122
1568.214996	853.4000244
1568.726424	854.0
1569.237798	842.0
1569.749118	837.7999878
1570.260383	848.4000244
1570.771594	853.2000122
1571.28275	844.7999878
1571.793853	851.5999756
1572.304901	848.5999756
1572.815895	845.7999878
1573.326834	846.2000122
1573.837719	848.4000244
1574.34855	853.5999756
1574.859327	851.4000244
1575.370049	859.5999756
1575.880717	845.7999878
1576.391331	844.4000244
1576.90189	842.4000244
1577.412395	840.2000122
1577.922846	859.2000122
1578.433243	847.0
1578.943586	852.2000122
1579.453874	851.0
1579.964108	848.4000244
1580.474288	846.0
1580.984413	846.0
1581.494484	844.4000244
1582.004501	847.2000122
1582.514464	841.4000244
1583.024373	846.5999756
1583.534227	843.0
1584.044028	850.0
1584.553774	844.2000122
1585.063465	838.4000244
1585.573103	848.5999756
1586.082687	835.2000122
1586.592216	843.5999756
1587.101691	852.4000244
1587.611112	844.5999756
1588.120478	855.0
1588.629791	846.2000122
1589.139049	847.4000244
1589.648253	834.4000244
1590.157403	847.0
1590.666499	845.5999756
1591.175541	845.5999756
1591.684529	844.7999878
1592.193462	846.4000244
