1043.112314	2735.399902
1043.678594	2774.600098
1044.244816	2742.0
1044.810979	2760.399902
1045.377084	2756.600098
1045.943132	2772.199951
1046.509121	2747.0
1047.075052	2766.800049
1047.640924	2724.0
1048.206739	2748.399902
1048.772495	2721.800049
1049.338193	2766.399902
1049.903833	2733.800049
1050.469415	2753.600098
1051.034939	2771.399902
1051.600404	2733.0
1052.165811	2731.800049
1052.731161	2761.199951
1053.296452	2746.600098
1053.861685	2763.0
1054.426859	2713.600098
1054.991976	2749.199951
1055.557035	2705.199951
1056.122035	2709.0
1056.686978	2707.399902
1057.251862	2739.399902
1057.816688	2734.600098
1058.381456	2732.800049
1058.946166	2722.0
1059.510818	2726.800049
1060.075411	2707.600098
1060.639947	2731.399902
1061.204425	2713.0
1061.768844	2723.600098
1062.333206	2692.600098
1062.897509	2709.399902
1063.461754	2692.600098
1064.025942	2702.600098
1064.590071	2692.600098
1065.154142	2702.0
1065.718155	2686.0
1066.28211	2709.600098
1066.846007	2695.0
1067.409846	2714.399902
1067.973627	2714.600098
1068.53735	2702.399902
1069.101014	2699.800049
1069.664621	2700.600098
1070.22817	2684.800049
1070.791661	2681.399902
1071.355094	2685.0
1071.918469	2673.0
1072.481785	2685.800049
1073.045044	2689.600098
1073.608245	2658.600098
1074.171388	2701.199951
1074.734473	2675.600098
1075.297499	2684.199951
1075.860468	2687.399902
1076.423379	2660.399902
1076.986232	2662.199951
1077.549027	2676.800049
1078.111764	2666.399902
1078.674443	2661.399902
1079.237064	2658.800049
1079.799627	2635.800049
1080.362132	2662.0
1080.92458	2662.600098
1081.486969	2639.199951
1082.0493	2639.600098
1082.611574	2657.399902
1083.173789	2654.0
1083.735947	2667.800049
1084.298047	2637.600098
1084.860088	2625.0
1085.422072	2658.199951
1085.983998	2644.399902
1086.545866	2644.600098
1087.107677	2627.399902
1087.669429	2617.399902
1088.231123	2637.199951
1088.79276	2629.0
1089.354338	2633.0
1089.915859	2630.0
1090.477322	2628.399902
1091.038727	2603.600098
1091.600074	2607.0
1092.161363	2608.600098
1092.722595	2626.800049
1093.283768	2632.600098
1093.844884	2615.399902
1094.405942	2606.199951
1094.966942	2607.399902
1095.527884	2620.600098
1096.088768	2603.600098
1096.649595	2599.399902
1097.210364	2582.800049
1097.771074	2596.399902
1098.331728	2593.399902
1098.892323	2600.800049
1099.45286	2594.0
1100.01334	2597.0
1100.573762	2585.199951
1101.134126	2580.600098
1101.694432	2579.600098
1102.25468	2591.0
1102.814871	2546.800049
1103.375004	2581.800049
1103.935079	2562.0
1104.495096	2572.800049
1105.055056	2554.0
1105.614958	2559.800049
1106.174802	2548.199951
1106.734588	2549.0
1107.294317	2577.399902
1107.853987	2563.0
1108.4136	2550.0
1108.973156	2547.399902
1109.532653	2535.600098
1110.092093	2550.600098
1110.651475	2533.600098
1111.2108	2546.399902
1111.770066	2535.199951
1112.329275	2561.800049
1112.888426	2552.600098
1113.44752	2542.199951
1114.006556	2559.399902
1114.565534	2541.199951
1115.124454	2537.199951
1115.683317	2536.399902
1116.242122	2550.600098
1116.800869	2540.800049
1117.359559	2526.800049
1117.918191	2534.800049
1118.476765	2516.199951
1119.035282	2512.0
1119.593741	2505.199951
1120.152142	2526.0
1120.710486	2522.0
1121.268772	2498.0
1121.827	2498.800049
1122.385171	2528.199951
1122.943284	2490.0
1123.50134	2497.0
1124.059337	2498.199951
1124.617277	2505.399902
1125.17516	2499.800049
1125.732985	2511.0
1126.290752	2478.600098
1126.848462	2500.0
1127.406114	2520.399902
1127.963709	2507.600098
1128.521245	2499.600098
1129.078725	2498.600098
1129.636146	2478.199951
1130.193511	2500.800049
1130.750817	2480.800049
1131.308066	2502.800049
1131.865257	2479.600098
1132.422391	2471.0
1132.979467	2494.399902
1133.536486	2528.800049
1134.093447	2522.600098
1134.650351	2521.800049
1135.207197	2489.199951
1135.763985	2492.800049
1136.320716	2500.0
1136.877389	2462.199951
1137.434005	2486.600098
1137.990563	2493.199951
1138.547064	2461.600098
1139.103507	2495.0
1139.659893	2488.399902
1140.216221	2474.199951
1140.772492	2472.199951
1141.328705	2479.399902
1141.884861	2473.399902
1142.440959	2492.800049
1142.997	2473.0
1143.552983	2481.0
1144.108908	2457.0
1144.664777	2505.199951
1145.220587	2487.800049
1145.776341	2493.800049
1146.332036	2469.199951
1146.887675	2490.399902
1147.443256	2468.800049
1147.998779	2485.0
1148.554245	2474.0
1149.109653	2504.800049
1149.665004	2448.0
1150.220298	2469.399902
1150.775534	2463.0
1151.330713	2488.0
1151.885834	2479.800049
1152.440898	2482.0
1152.995904	2461.199951
1153.550853	2466.800049
1154.105745	2451.800049
1154.660579	2466.399902
1155.215356	2471.199951
1155.770075	2461.600098
1156.324737	2455.800049
1156.879341	2450.800049
1157.433889	2478.0
1157.988378	2470.600098
1158.542811	2433.0
1159.097186	2460.399902
1159.651503	2453.0
1160.205764	2443.0
1160.759966	2471.199951
1161.314112	2429.399902
1161.8682	2459.0
1162.422231	2452.800049
1162.976204	2460.0
1163.53012	2487.0
1164.083979	2463.0
1164.637781	2445.0
1165.191525	2447.0
1165.745211	2436.600098
1166.298841	2465.800049
1166.852413	2462.399902
1167.405928	2447.399902
1167.959385	2435.199951
1168.512785	2453.0
1169.066128	2440.600098
1169.619413	2455.199951
1170.172642	2418.199951
1170.725813	2434.0
1171.278926	2459.800049
1171.831983	2431.199951
1172.384982	2441.800049
1172.937923	2457.199951
1173.490808	2429.600098
1174.043635	2448.800049
1174.596405	2422.0
1175.149118	2427.199951
1175.701773	2436.399902
1176.254371	2425.399902
1176.806912	2425.0
1177.359396	2432.199951
1177.911822	2421.399902
1178.464192	2426.199951
1179.016503	2430.0
1179.568758	2426.399902
1180.120956	2426.800049
1180.673096	2432.800049
1181.225179	2401.399902
1181.777205	2433.399902
1182.329173	2403.600098
1182.881085	2433.0
1183.432939	2407.399902
1183.984736	2427.0
1184.536476	2410.199951
1185.088158	2411.600098
1185.639784	2426.0
1186.191352	2408.600098
1186.742863	2406.199951
1187.294317	2402.199951
1187.845713	2408.600098
1188.397053	2404.800049
1188.948335	2418.399902
1189.499561	2407.0
1190.050729	2396.800049
1190.601839	2396.199951
1191.152893	2388.800049
1191.70389	2388.800049
1192.254829	2418.199951
1192.805712	2408.199951
1193.356537	2411.0
1193.907305	2390.399902
1194.458016	2393.600098
1195.00867	2378.800049
1195.559266	2397.399902
1196.109806	2400.0
1196.660288	2379.800049
1197.210714	2381.199951
1197.761082	2381.600098
1198.311393	2381.800049
1198.861647	2369.800049
1199.411844	2375.0
1199.961984	2363.800049
1200.512067	2387.800049
1201.062092	2390.0
1201.612061	2367.800049
1202.161973	2367.399902
1202.711827	2381.600098
1203.261625	2371.800049
1203.811365	2382.0
1204.361048	2365.600098
1204.910675	2395.199951
1205.460244	2367.800049
1206.009756	2378.800049
1206.559211	2352.600098
1207.10861	2356.399902
1207.657951	2350.399902
1208.207235	2363.800049
1208.756462	2352.399902
1209.305632	2348.0
1209.854745	2347.399902
1210.403801	2377.800049
1210.9528	2359.199951
1211.501742	2362.199951
1212.050627	2350.0
1212.599455	2381.199951
1213.148226	2338.800049
1213.69694	2329.800049
1214.245597	2355.199951
1214.794197	2352.800049
1215.34274	2351.0
1215.891227	2349.0
1216.439656	2333.600098
1216.988028	2326.399902
1217.536343	2339.0
1218.084602	2357.0
1218.632803	2366.800049
1219.180947	2339.600098
1219.729035	2367.0
1220.277065	2344.0
1220.825039	2333.0
1221.372956	2319.199951
1221.920815	2321.800049
1222.468618	2340.600098
1223.016364	2299.800049
1223.564053	2316.600098
1224.111685	2316.600098
1224.65926	2312.0
1225.206779	2304.800049
1225.75424	2308.800049
1226.301645	2334.199951
1226.848992	2313.199951
1227.396283	2325.800049
1227.943517	2306.0
1228.490694	2305.800049
1229.037814	2303.600098
1229.584877	2303.399902
1230.131883	2298.0
1230.678833	2317.600098
1231.225725	2298.600098
1231.772561	2285.0
1232.31934	2310.399902
1232.866062	2324.600098
1233.412727	2311.199951
1233.959336	2312.399902
1234.505887	2307.600098
1235.052382	2298.0
1235.59882	2277.600098
1236.145201	2290.800049
1236.691525	2296.399902
1237.237793	2297.399902
1237.784003	2324.800049
1238.330157	2284.199951
1238.876254	2290.399902
1239.422295	2300.0
1239.968278	2309.0
1240.514205	2267.600098
1241.060074	2293.600098
1241.605888	2282.800049
1242.151644	2296.399902
1242.697343	2285.600098
1243.242986	2286.399902
1243.788572	2269.199951
1244.334101	2287.0
1244.879574	2260.600098
1245.42499	2267.800049
1245.970349	2278.199951
1246.515651	2281.600098
1247.060896	2275.0
1247.606085	2264.0
1248.151217	2253.600098
1248.696292	2255.399902
1249.241311	2255.800049
1249.786273	2266.800049
1250.331178	2276.600098
1250.876026	2284.800049
1251.420818	2260.0
1251.965553	2247.800049
1252.510231	2280.800049
1253.054853	2256.199951
1253.599418	2261.399902
1254.143926	2258.600098
1254.688377	2245.199951
1255.232772	2254.199951
1255.77711	2254.199951
1256.321392	2247.600098
1256.865617	2250.800049
1257.409785	2261.0
1257.953896	2249.399902
1258.497951	2243.600098
1259.041949	2259.399902
1259.585891	2226.199951
1260.129776	2247.0
1260.673604	2262.800049
1261.217375	2247.0
1261.76109	2251.399902
1262.304749	2236.199951
1262.84835	2248.0
1263.391896	2236.399902
1263.935384	2228.0
1264.478816	2243.199951
1265.022191	2242.800049
1265.56551	2237.399902
1266.108772	2212.199951
1266.651977	2239.199951
1267.195126	2223.800049
1267.738218	2221.199951
1268.281254	2239.800049
1268.824233	2226.399902
1269.367155	2232.0
1269.910021	2219.600098
1270.452831	2224.800049
1270.995583	2218.800049
1271.53828	2236.800049
1272.080919	2226.800049
1272.623502	2239.800049
1273.166029	2213.800049
1273.708499	2232.800049
1274.250912	2219.800049
1274.793269	2219.0
1275.33557	2218.199951
1275.877814	2209.600098
1276.420001	2229.0
1276.962132	2215.800049
1277.504206	2213.0
1278.046224	2234.800049
1278.588185	2198.800049
1279.13009	2220.600098
1279.671938	2198.0
1280.21373	2192.800049
1280.755465	2194.199951
1281.297144	2219.199951
1281.838766	2189.0
1282.380332	2201.600098
1282.921841	2190.800049
1283.463294	2182.800049
1284.004691	2208.399902
1284.546031	2260.0
1285.087314	2314.800049
1285.628541	2280.600098
1286.169711	2221.399902
1286.710826	2187.399902
1287.251883	2184.0
1287.792884	2195.0
1288.333829	2201.800049
1288.874717	2194.600098
1289.415549	2175.199951
1289.956325	2153.199951
1290.497044	2178.800049
1291.037706	2168.399902
1291.578313	2177.600098
1292.118862	2178.800049
1292.659356	2169.199951
1293.199793	2169.199951
1293.740173	2172.399902
1294.280498	2138.600098
1294.820765	2188.199951
1295.360977	2163.399902
1295.901132	2167.399902
1296.44123	2146.800049
1296.981273	2166.399902
1297.521259	2175.199951
1298.061188	2158.600098
1298.601061	2158.399902
1299.140878	2147.0
1299.680639	2161.600098
1300.220343	2175.399902
1300.75999	2141.399902
1301.299582	2127.199951
1301.839117	2151.600098
1302.378596	2135.600098
1302.918018	2150.0
1303.457384	2140.600098
1303.996694	2148.800049
1304.535947	2128.199951
1305.075145	2152.399902
1305.614285	2148.399902
1306.15337	2142.800049
1306.692398	2129.199951
1307.23137	2150.600098
1307.770286	2154.800049
1308.309145	2149.0
1308.847948	2138.199951
1309.386695	2161.399902
1309.925385	2144.600098
1310.464019	2123.399902
1311.002597	2157.600098
1311.541119	2129.600098
1312.079584	2128.199951
1312.617993	2135.0
1313.156346	2144.399902
1313.694643	2117.800049
1314.232883	2127.600098
1314.771067	2108.0
1315.309195	2132.199951
1315.847267	2128.600098
1316.385282	2120.800049
1316.923241	2126.399902
1317.461144	2117.0
1317.998991	2115.800049
1318.536782	2128.199951
1319.074516	2101.399902
1319.612194	2105.399902
1320.149816	2121.199951
1320.687382	2109.399902
1321.224891	2119.0
1321.762344	2112.600098
1322.299742	2122.0
1322.837083	2092.800049
1323.374367	2095.800049
1323.911596	2084.800049
1324.448768	2114.399902
1324.985885	2110.600098
1325.522945	2116.800049
1326.059949	2107.0
1326.596896	2108.800049
1327.133788	2087.0
1327.670623	2115.600098
1328.207403	2084.600098
1328.744126	2094.199951
1329.280793	2100.199951
1329.817404	2086.399902
1330.353959	2097.800049
1330.890457	2093.399902
1331.4269	2091.0
1331.963286	2096.0
1332.499617	2079.600098
1333.035891	2064.800049
1333.572109	2090.0
1334.108271	2077.399902
1334.644377	2061.0
1335.180427	2090.399902
1335.71642	2091.399902
1336.252358	2072.800049
1336.78824	2094.800049
1337.324065	2062.600098
1337.859834	2099.600098
1338.395548	2079.199951
1338.931205	2078.199951
1339.466806	2056.800049
1340.002351	2081.0
1340.537841	2062.600098
1341.073274	2073.399902
1341.608651	2063.600098
1342.143972	2066.399902
1342.679236	2070.0
1343.214445	2047.0
1343.749598	2055.199951
1344.284695	2052.399902
1344.819736	2048.0
1345.354721	2051.600098
1345.88965	2057.600098
1346.424522	2043.599976
1346.959339	2056.600098
1347.4941	2052.399902
1348.028805	2048.0
1348.563453	2031.599976
1349.098046	2055.199951
1349.632583	2018.199951
1350.167064	2063.0
1350.701489	2045.800049
1351.235858	2040.400024
1351.770171	2034.800049
1352.304428	2062.399902
1352.838629	2057.600098
1353.372774	2035.0
1353.906863	2029.199951
1354.440896	2024.0
1354.974873	2035.800049
1355.508794	2024.199951
1356.04266	2032.199951
1356.576469	2027.400024
1357.110222	2038.0
1357.64392	2032.0
1358.177561	2015.199951
1358.711147	2036.800049
1359.244677	2028.800049
1359.778151	2024.199951
1360.311569	2029.0
1360.844931	2032.400024
1361.378237	2007.400024
1361.911487	2021.599976
1362.444682	2019.800049
1362.97782	2021.0
1363.510903	2029.0
1364.043929	2024.199951
1364.5769	2002.599976
1365.109815	2026.800049
1365.642674	2016.800049
1366.175478	2003.599976
1366.708225	2002.800049
1367.240917	2001.599976
1367.773552	2004.599976
1368.306132	2021.0
1368.838656	1988.199951
1369.371124	2005.0
1369.903537	1998.599976
1370.435893	2010.0
1370.968194	2002.0
1371.500439	2003.0
1372.032628	2002.599976
1372.564761	2037.800049
1373.096838	2008.0
1373.62886	2005.0
1374.160826	2008.0
1374.692736	1984.800049
1375.22459	1996.599976
1375.756388	2004.400024
1376.288131	1997.0
1376.819818	2015.0
1377.351449	2012.800049
1377.883024	1978.0
1378.414544	1994.400024
1378.946008	1978.800049
1379.477416	1990.599976
1380.008768	1976.400024
1380.540064	1976.0
1381.071305	1987.800049
1381.60249	1971.199951
1382.133619	2007.599976
1382.664693	1994.800049
1383.195711	1985.0
1383.726673	1977.400024
1384.257579	1993.800049
1384.78843	1979.199951
1385.319224	1985.599976
1385.849964	1970.800049
1386.380647	1966.199951
1386.911275	1978.0
1387.441847	2017.599976
1387.972363	2098.399902
1388.502824	2235.0
1389.033229	2061.800049
1389.563578	1992.599976
1390.093872	1969.199951
1390.62411	1979.599976
1391.154292	1972.400024
1391.684419	1965.400024
1392.214489	1960.800049
1392.744505	1967.400024
1393.274464	1961.800049
1393.804368	1951.800049
1394.334216	1979.0
1394.864009	1966.599976
1395.393746	1972.599976
1395.923427	1962.400024
1396.453053	1970.199951
1396.982623	1959.0
1397.512138	1966.0
1398.041597	1974.599976
1398.571	1981.0
1399.100347	1986.800049
1399.629639	1960.400024
1400.158876	1974.599976
1400.688056	1960.599976
1401.217182	1941.599976
1401.746251	1946.599976
1402.275265	1955.199951
1402.804224	1949.400024
1403.333126	1940.800049
1403.861974	1950.0
1404.390765	1943.599976
1404.919501	1956.800049
1405.448182	1945.800049
1405.976807	1936.400024
1406.505376	1955.0
1407.03389	1960.0
1407.562349	1944.800049
1408.090751	1925.599976
1408.619098	1946.400024
1409.14739	1954.599976
1409.675626	1950.0
1410.203807	1940.800049
1410.731932	1940.199951
1411.260001	1952.599976
1411.788015	1931.800049
1412.315974	1948.400024
1412.843877	1929.400024
1413.371725	1943.599976
1413.899516	1921.199951
1414.427253	1930.400024
1414.954934	1917.800049
1415.482559	1930.0
1416.010129	1924.0
1416.537644	1915.0
1417.065103	1920.599976
1417.592507	1905.400024
1418.119855	1922.0
1418.647147	1914.0
1419.174385	1919.800049
1419.701566	1911.0
1420.228692	1915.0
1420.755763	1909.599976
1421.282779	1947.599976
1421.809739	1920.0
1422.336643	1922.800049
1422.863492	1910.599976
1423.390286	1920.400024
1423.917024	1903.599976
1424.443707	1922.199951
1424.970334	1918.0
1425.496906	1911.599976
1426.023422	1914.199951
1426.549883	1906.199951
1427.076289	1900.199951
1427.602639	1917.599976
1428.128934	1925.599976
1428.655174	1914.199951
1429.181358	1918.400024
1429.707486	1888.0
1430.23356	1896.0
1430.759578	1909.599976
1431.28554	1901.400024
1431.811448	1912.800049
1432.337299	1887.599976
1432.863096	1898.599976
1433.388837	1897.0
1433.914523	1896.400024
1434.440153	1886.0
1434.965728	1896.400024
1435.491248	1892.199951
1436.016712	1920.0
1436.542122	1895.400024
1437.067475	1877.400024
1437.592774	1869.400024
1438.118017	1894.599976
1438.643205	1885.199951
1439.168337	1887.400024
1439.693414	1872.199951
1440.218436	1875.599976
1440.743403	1871.400024
1441.268314	1886.400024
1441.79317	1884.400024
1442.31797	1879.0
1442.842716	1878.599976
1443.367406	1882.199951
1443.892041	1872.199951
1444.41662	1867.599976
1444.941145	1884.800049
1445.465614	1887.800049
1445.990027	1865.800049
1446.514386	1867.0
1447.038689	1870.0
1447.562937	1874.400024
1448.08713	1867.800049
1448.611267	1861.599976
1449.13535	1876.400024
1449.659377	1864.0
1450.183348	1873.199951
1450.707265	1873.199951
1451.231126	1859.0
1451.754932	1865.0
1452.278683	1872.400024
1452.802379	1876.0
1453.32602	1856.0
1453.849605	1869.199951
1454.373135	1866.199951
1454.89661	1843.599976
1455.42003	1854.0
1455.943394	1854.599976
1456.466703	1850.0
1456.989958	1845.199951
1457.513157	1844.199951
1458.0363	1848.800049
1458.559389	1862.400024
1459.082423	1848.800049
1459.605401	1840.199951
1460.128324	1843.599976
1460.651192	1856.800049
1461.174005	1842.199951
1461.696763	1835.199951
1462.219465	1840.199951
1462.742113	1838.800049
1463.264705	1847.199951
1463.787242	1839.199951
1464.309724	1824.599976
1464.832151	1838.199951
1465.354523	1839.400024
1465.87684	1833.599976
1466.399102	1831.199951
1466.921308	1831.599976
1467.443459	1824.599976
1467.965556	1810.599976
1468.487597	1836.400024
1469.009583	1813.800049
1469.531514	1841.199951
1470.05339	1828.800049
1470.575211	1808.800049
1471.096977	1841.599976
1471.618688	1820.599976
1472.140343	1819.400024
1472.661944	1823.400024
1473.18349	1824.400024
1473.70498	1830.0
1474.226416	1820.599976
1474.747796	1821.0
1475.269122	1843.599976
1475.790392	1815.599976
1476.311607	1818.800049
1476.832768	1808.199951
1477.353873	1807.199951
1477.874923	1809.400024
1478.395918	1826.0
1478.916859	1796.0
1479.437744	1803.800049
1479.958574	1808.400024
1480.479349	1794.0
1481.00007	1802.199951
1481.520735	1809.199951
1482.041345	1797.400024
1482.5619	1792.0
1483.082401	1781.400024
1483.602846	1799.400024
1484.123236	1795.0
1484.643572	1781.400024
1485.163852	1789.0
1485.684077	1789.400024
1486.204248	1789.0
1486.724363	1790.199951
1487.244424	1818.0
1487.76443	1796.800049
1488.28438	1786.0
1488.804276	1805.0
1489.324117	1798.0
1489.843903	1785.800049
1490.363634	1776.0
1490.88331	1784.400024
1491.402931	1780.599976
1491.922497	1781.400024
1492.442008	1784.400024
1492.961465	1786.400024
1493.480866	1785.599976
1494.000213	1765.400024
1494.519505	1768.599976
1495.038741	1783.0
1495.557923	1780.800049
1496.07705	1776.599976
1496.596122	1766.199951
1497.11514	1787.0
1497.634102	1773.400024
1498.15301	1779.599976
1498.671862	1791.400024
1499.19066	1770.800049
1499.709403	1782.0
1500.228091	1752.800049
1500.746725	1767.400024
1501.265303	1756.0
1501.783827	1762.0
1502.302296	1776.800049
1502.820709	1771.199951
1503.339069	1753.199951
1503.857373	1760.599976
1504.375622	1758.199951
1504.893817	1758.599976
1505.411957	1771.400024
1505.930042	1748.599976
1506.448072	1764.199951
1506.966048	1739.800049
1507.483968	1758.0
1508.001834	1757.199951
1508.519645	1748.199951
1509.037401	1745.199951
1509.555103	1740.199951
1510.07275	1756.800049
1510.590342	1754.599976
1511.107879	1747.199951
1511.625361	1760.0
1512.142789	1736.400024
1512.660162	1759.199951
1513.17748	1741.199951
1513.694743	1743.599976
1514.211952	1766.199951
1514.729106	1746.599976
1515.246205	1730.400024
1515.76325	1730.0
1516.280239	1741.800049
1516.797174	1743.599976
1517.314055	1746.599976
1517.83088	1747.0
1518.347651	1749.0
1518.864367	1736.199951
1519.381029	1750.199951
1519.897635	1769.599976
1520.414187	1720.800049
1520.930685	1723.800049
1521.447127	1738.599976
1521.963515	1751.199951
1522.479849	1736.0
1522.996127	1724.599976
1523.512351	1736.800049
1524.028521	1721.199951
1524.544635	1733.400024
1525.060695	1729.0
1525.576701	1719.0
1526.092651	1723.800049
1526.608547	1728.199951
1527.124389	1720.800049
1527.640175	1738.400024
1528.155907	1739.0
1528.671585	1722.400024
1529.187208	1713.800049
1529.702776	1736.199951
1530.218289	1732.800049
1530.733748	1728.199951
1531.249153	1737.599976
1531.764502	1741.599976
1532.279798	1723.0
1532.795038	1720.400024
1533.310224	1731.0
1533.825355	1717.800049
1534.340432	1727.599976
1534.855454	1723.800049
1535.370422	1712.0
1535.885335	1714.0
1536.400193	1704.599976
1536.914997	1731.0
1537.429746	1697.599976
1537.944441	1714.800049
1538.459081	1716.199951
1538.973667	1726.199951
1539.488198	1709.400024
1540.002674	1711.0
1540.517096	1700.800049
1541.031464	1719.199951
1541.545777	1711.199951
1542.060035	1701.599976
1542.574239	1709.0
1543.088388	1718.400024
1543.602483	1716.599976
1544.116523	1708.199951
1544.630509	1727.400024
1545.14444	1710.599976
1545.658317	1695.599976
1546.172139	1714.400024
1546.685907	1718.0
1547.19962	1696.199951
1547.713279	1690.0
1548.226883	1707.800049
1548.740433	1693.599976
1549.253929	1690.800049
1549.76737	1696.400024
1550.280756	1707.0
1550.794088	1686.199951
1551.307365	1712.0
1551.820588	1705.0
1552.333757	1698.599976
1552.846871	1712.599976
1553.359931	1695.800049
1553.872936	1703.400024
1554.385887	1707.400024
1554.898783	1706.400024
1555.411625	1695.800049
1555.924413	1684.400024
1556.437146	1697.199951
1556.949824	1699.400024
1557.462449	1702.0
1557.975019	1698.400024
1558.487534	1695.400024
1558.999995	1689.400024
1559.512402	1710.400024
1560.024754	1695.800049
1560.537052	1699.400024
1561.049295	1695.0
1561.561485	1694.400024
1562.073619	1681.800049
1562.5857	1685.199951
1563.097726	1696.400024
1563.609697	1690.0
1564.121615	1698.800049
1564.633477	1691.0
1565.145286	1705.400024
1565.65704	1681.0
1566.16874	1694.800049
1566.680386	1684.400024
1567.191977	1701.800049
1567.703514	1690.0
1568.214996	1681.400024
1568.726424	1686.199951
1569.237798	1681.400024
1569.749118	1677.400024
1570.260383	1680.0
1570.771594	1693.599976
1571.28275	1664.0
1571.793853	1695.0
1572.304901	1667.599976
1572.815895	1688.199951
1573.326834	1675.599976
1573.837719	1681.599976
1574.34855	1677.400024
1574.859327	1673.599976
1575.370049	1687.400024
1575.880717	1682.800049
1576.391331	1682.800049
1576.90189	1657.599976
1577.412395	1682.400024
1577.922846	1674.599976
1578.433243	1670.199951
1578.943586	1654.800049
1579.453874	1684.800049
1579.964108	1677.599976
1580.474288	1675.199951
1580.984413	1672.599976
1581.494484	1649.0
1582.004501	1677.0
1582.514464	1654.800049
1583.024373	1681.199951
1583.534227	1652.599976
1584.044028	1665.199951
1584.553774	1651.800049
1585.063465	1665.199951
1585.573103	1666.0
1586.082687	1644.800049
1586.592216	1671.800049
1587.101691	1682.199951
1587.611112	1673.400024
1588.120478	1654.599976
1588.629791	1674.599976
1589.139049	1666.400024
1589.648253	1669.199951
1590.157403	1670.599976
1590.666499	1670.800049
1591.175541	1664.400024
1591.684529	1653.800049
1592.193462	1681.800049
