1042.545976	1908.800049
1043.112314	1935.800049
1043.678594	1912.0
1044.244816	1908.0
1044.810979	1921.400024
1045.377084	1904.400024
1045.943132	1894.599976
1046.509121	1906.400024
1047.075052	1890.800049
1047.640924	1910.599976
1048.206739	1896.800049
1048.772495	1902.199951
1049.338193	1913.199951
1049.903833	1905.599976
1050.469415	1916.0
1051.034939	1895.199951
1051.600404	1885.400024
1052.165811	1902.0
1052.731161	1901.599976
1053.296452	1905.0
1053.861685	1876.599976
1054.426859	1887.400024
1054.991976	1894.800049
1055.557035	1882.199951
1056.122035	1879.0
1056.686978	1892.0
1057.251862	1879.199951
1057.816688	1892.199951
1058.381456	1888.400024
1058.946166	1879.400024
1059.510818	1889.599976
1060.075411	1886.0
1060.639947	1883.0
1061.204425	1884.599976
1061.768844	1900.800049
1062.333206	1882.599976
1062.897509	1869.0
1063.461754	1878.599976
1064.025942	1866.199951
1064.590071	1880.400024
1065.154142	1888.199951
1065.718155	1878.800049
1066.28211	1883.599976
1066.846007	1870.0
1067.409846	1879.0
1067.973627	1856.599976
1068.53735	1879.0
1069.101014	1859.0
1069.664621	1853.599976
1070.22817	1880.199951
1070.791661	1874.0
1071.355094	1865.199951
1071.918469	1868.199951
1072.481785	1858.800049
1073.045044	1862.0
1073.608245	1878.800049
1074.171388	1866.400024
1074.734473	1854.400024
1075.297499	1854.400024
1075.860468	1861.800049
1076.423379	1867.0
1076.986232	1865.599976
1077.549027	1858.199951
1078.111764	1859.599976
1078.674443	1852.599976
1079.237064	1836.0
1079.799627	1846.599976
1080.362132	1848.400024
1080.92458	1862.599976
1081.486969	1844.800049
1082.0493	1845.800049
1082.611574	1832.0
1083.173789	1845.0
1083.735947	1848.199951
1084.298047	1870.800049
1084.860088	1851.400024
1085.422072	1843.800049
1085.983998	1830.0
1086.545866	1834.0
1087.107677	1819.599976
1087.669429	1861.400024
1088.231123	1829.599976
1088.79276	1836.0
1089.354338	1838.199951
1089.915859	1831.400024
1090.477322	1821.599976
1091.038727	1850.400024
1091.600074	1815.0
1092.161363	1848.199951
1092.722595	1821.599976
1093.283768	1842.0
1093.844884	1806.400024
1094.405942	1836.0
1094.966942	1816.199951
1095.527884	1833.199951
1096.088768	1817.199951
1096.649595	1812.800049
1097.210364	1835.199951
1097.771074	1834.400024
1098.331728	1820.0
1098.892323	1824.599976
1099.45286	1799.599976
1100.01334	1829.800049
1100.573762	1828.800049
1101.134126	1825.199951
1101.694432	1807.0
1102.25468	1808.599976
1102.814871	1812.800049
1103.375004	1809.400024
1103.935079	1800.800049
1104.495096	1819.199951
1105.055056	1805.599976
1105.614958	1815.800049
1106.174802	1795.400024
1106.734588	1807.0
1107.294317	1801.800049
1107.853987	1808.599976
1108.4136	1792.199951
1108.973156	1791.800049
1109.532653	1796.599976
1110.092093	1797.599976
1110.651475	1802.199951
1111.2108	1825.199951
1111.770066	1784.599976
1112.329275	1810.199951
1112.888426	1788.400024
1113.44752	1796.800049
1114.006556	1807.199951
1114.565534	1793.199951
1115.124454	1776.199951
1115.683317	1804.0
1116.242122	1797.800049
1116.800869	1791.800049
1117.359559	1786.0
1117.918191	1799.599976
1118.476765	1773.199951
1119.035282	1793.400024
1119.593741	1795.400024
1120.152142	1793.0
1120.710486	1797.800049
1121.268772	1799.0
1121.827	1784.199951
1122.385171	1805.199951
1122.943284	1778.599976
1123.50134	1777.199951
1124.059337	1783.400024
1124.617277	1789.800049
1125.17516	1774.199951
1125.732985	1791.0
1126.290752	1764.599976
1126.848462	1797.599976
1127.406114	1789.599976
1127.963709	1780.199951
1128.521245	1783.400024
1129.078725	1788.800049
1129.636146	1792.800049
1130.193511	1784.0
1130.750817	1790.0
1131.308066	1777.400024
1131.865257	1778.800049
1132.422391	1798.0
1132.979467	1780.800049
1133.536486	1785.0
1134.093447	1794.0
1134.650351	1773.400024
1135.207197	1769.199951
1135.763985	1785.0
1136.320716	1790.800049
1136.877389	1780.199951
1137.434005	1778.199951
1137.990563	1775.599976
1139.103507	1774.599976
1139.659893	1782.599976
1140.216221	1773.400024
1140.772492	1765.199951
1141.328705	1776.400024
1141.884861	1772.599976
1142.440959	1787.0
1142.997	1797.0
1143.552983	1789.0
1144.108908	1776.599976
1144.664777	1782.199951
1145.220587	1771.400024
1145.776341	1789.400024
1146.332036	1796.800049
1146.887675	1776.400024
1147.443256	1790.0
1147.998779	1787.0
1148.554245	1766.199951
1149.109653	1775.800049
1149.665004	1782.400024
1150.220298	1782.199951
1150.775534	1797.599976
1151.330713	1773.199951
1151.885834	1777.199951
1152.440898	1783.400024
1152.995904	1788.599976
1153.550853	1783.599976
1154.105745	1793.800049
1154.660579	1788.599976
1155.215356	1777.199951
1155.770075	1795.599976
1156.324737	1785.599976
1156.879341	1777.400024
1157.433889	1773.800049
1157.988378	1796.599976
1158.542811	1788.800049
1159.097186	1774.800049
1159.651503	1765.800049
1160.205764	1777.0
1160.759966	1781.400024
1161.314112	1774.800049
1161.8682	1792.400024
1162.422231	1780.599976
1162.976204	1790.599976
1163.53012	1771.400024
1164.083979	1781.0
1164.637781	1763.400024
1165.191525	1792.400024
1165.745211	1786.199951
1166.298841	1776.0
1166.852413	1769.599976
1167.405928	1790.800049
1167.959385	1771.599976
1168.512785	1776.0
1169.066128	1783.800049
1169.619413	1774.400024
1170.172642	1776.599976
1170.725813	1785.0
1171.278926	1776.199951
1171.831983	1784.0
1172.384982	1758.599976
1172.937923	1780.800049
1173.490808	1768.0
1174.043635	1778.800049
1174.596405	1779.400024
1175.149118	1763.0
1175.701773	1779.199951
1176.254371	1796.400024
1176.806912	1770.800049
1177.359396	1757.599976
1177.911822	1779.599976
1178.464192	1743.400024
1179.016503	1786.400024
1179.568758	1775.199951
1180.120956	1757.800049
1180.673096	1763.599976
1181.225179	1767.800049
1181.777205	1748.599976
1182.329173	1776.599976
1182.881085	1758.400024
1183.432939	1775.199951
1183.984736	1763.0
1184.536476	1784.800049
1185.088158	1780.199951
1185.639784	1749.599976
1186.191352	1768.800049
1186.742863	1764.199951
1187.294317	1769.599976
1187.845713	1769.800049
1188.397053	1772.800049
1188.948335	1770.400024
1189.499561	1777.400024
1190.050729	1754.599976
1190.601839	1750.800049
1191.152893	1754.400024
1191.70389	1759.199951
1192.254829	1752.199951
1192.805712	1758.800049
1193.356537	1769.400024
1193.907305	1761.400024
1194.458016	1771.800049
1195.00867	1786.800049
1195.559266	1746.599976
1196.109806	1754.199951
1196.660288	1756.199951
1197.210714	1743.800049
1197.761082	1748.599976
1198.311393	1749.0
1198.861647	1746.599976
1199.411844	1755.400024
1199.961984	1744.400024
1200.512067	1759.400024
1201.062092	1745.400024
1201.612061	1761.599976
1202.161973	1743.400024
1202.711827	1735.400024
1203.261625	1755.800049
1203.811365	1753.199951
1204.361048	1755.599976
1204.910675	1741.599976
1205.460244	1743.199951
1206.009756	1748.800049
1206.559211	1758.599976
1207.10861	1746.199951
1207.657951	1734.199951
1208.207235	1747.0
1208.756462	1757.599976
1209.305632	1736.800049
1209.854745	1756.400024
1210.403801	1744.599976
1210.9528	1745.199951
1211.501742	1752.599976
1212.050627	1731.599976
1212.599455	1743.599976
1213.148226	1743.199951
1213.69694	1761.400024
1214.245597	1742.199951
1214.794197	1743.599976
1215.34274	1747.199951
1215.891227	1740.0
1216.439656	1750.0
1216.988028	1730.800049
1217.536343	1728.0
1218.084602	1731.199951
1218.632803	1730.199951
1219.180947	1732.599976
1219.729035	1747.199951
1220.277065	1722.800049
1220.825039	1735.800049
1221.372956	1732.199951
1221.920815	1741.599976
1222.468618	1736.400024
1223.016364	1741.800049
1223.564053	1723.400024
1224.111685	1727.199951
1224.65926	1721.199951
1225.206779	1730.199951
1225.75424	1727.0
1226.301645	1721.599976
1226.848992	1739.599976
1227.396283	1743.400024
1227.943517	1734.199951
1228.490694	1731.800049
1229.037814	1730.199951
1229.584877	1732.199951
1230.131883	1735.599976
1230.678833	1712.400024
1231.225725	1714.800049
1231.772561	1723.0
1232.31934	1743.0
1232.866062	1718.0
1233.412727	1750.0
1233.959336	1713.400024
1234.505887	1738.599976
1235.052382	1726.599976
1235.59882	1730.0
1236.145201	1724.599976
1236.691525	1730.0
1237.237793	1714.0
1237.784003	1717.199951
1238.330157	1717.199951
1238.876254	1727.400024
1239.422295	1733.599976
1239.968278	1710.800049
1240.514205	1709.400024
1241.060074	1715.199951
1241.605888	1712.0
1242.151644	1722.199951
1242.697343	1720.800049
1243.242986	1728.0
1243.788572	1721.400024
1244.334101	1702.199951
1244.879574	1719.599976
1245.42499	1713.800049
1245.970349	1727.0
1246.515651	1684.400024
1247.060896	1714.800049
1247.606085	1709.800049
1248.151217	1735.400024
1248.696292	1719.0
1249.241311	1702.400024
1249.786273	1721.199951
1250.331178	1710.0
1250.876026	1699.199951
1251.420818	1726.0
1251.965553	1711.400024
1252.510231	1719.599976
1253.054853	1708.599976
1253.599418	1715.0
1254.143926	1713.800049
1254.688377	1705.800049
1255.232772	1720.599976
1255.77711	1721.800049
1256.321392	1702.599976
1256.865617	1707.0
1257.409785	1714.400024
1257.953896	1707.800049
1258.497951	1705.800049
1259.041949	1700.800049
1259.585891	1714.400024
1260.129776	1720.199951
1260.673604	1695.0
1261.217375	1721.599976
1261.76109	1716.199951
1262.304749	1705.599976
1262.84835	1716.199951
1263.391896	1705.199951
1263.935384	1699.199951
1264.478816	1696.0
1265.022191	1737.800049
1265.56551	1726.599976
1266.108772	1704.0
1266.651977	1685.800049
1267.195126	1702.0
1267.738218	1707.0
1268.281254	1715.199951
1268.824233	1698.400024
1269.367155	1690.400024
1269.910021	1718.800049
1270.452831	1698.599976
1270.995583	1712.400024
1271.53828	1699.599976
1272.080919	1698.0
1272.623502	1687.400024
1273.166029	1690.400024
1273.708499	1695.199951
1274.250912	1693.0
1274.793269	1701.800049
1275.33557	1693.800049
1275.877814	1695.599976
1276.420001	1703.800049
1276.962132	1692.599976
1277.504206	1691.199951
1278.046224	1694.199951
1278.588185	1668.800049
1279.13009	1670.199951
1279.671938	1691.800049
1280.21373	1683.199951
1280.755465	1683.199951
1281.297144	1673.0
1281.838766	1690.599976
1282.380332	1701.0
1282.921841	1696.800049
1283.463294	1691.800049
1284.004691	1706.599976
1284.546031	1748.599976
1285.087314	1902.400024
1285.628541	2033.0
1286.169711	1806.599976
1286.710826	1703.0
1287.251883	1709.800049
1287.792884	1669.199951
1288.333829	1694.0
1288.874717	1682.199951
1289.415549	1680.599976
1289.956325	1658.800049
1290.497044	1682.199951
1291.037706	1676.400024
1291.578313	1676.0
1292.118862	1682.0
1292.659356	1660.400024
1293.199793	1685.599976
1293.740173	1684.0
1294.280498	1677.800049
1294.820765	1681.0
1295.360977	1684.199951
1295.901132	1673.599976
1296.44123	1690.800049
1296.981273	1675.800049
1297.521259	1665.599976
1298.061188	1666.199951
1298.601061	1677.800049
1299.140878	1663.800049
1299.680639	1679.199951
1300.220343	1655.800049
1300.75999	1661.400024
1301.299582	1661.599976
1301.839117	1669.199951
1302.378596	1670.800049
1302.918018	1666.0
1303.457384	1664.599976
1303.996694	1682.599976
1304.535947	1656.800049
1305.075145	1661.0
1305.614285	1674.199951
1306.15337	1669.199951
1306.692398	1665.0
1307.23137	1660.0
1307.770286	1681.400024
1308.309145	1675.599976
1308.847948	1667.199951
1309.386695	1653.400024
1309.925385	1651.800049
1310.464019	1650.599976
1311.002597	1654.599976
1311.541119	1647.0
1312.079584	1654.0
1312.617993	1663.400024
1313.156346	1666.800049
1313.694643	1669.599976
1314.232883	1668.0
1314.771067	1659.400024
1315.309195	1655.800049
1315.847267	1675.599976
1316.385282	1633.800049
1316.923241	1650.800049
1317.461144	1655.199951
1317.998991	1655.599976
1318.536782	1652.199951
1319.074516	1650.0
1319.612194	1660.400024
1320.149816	1668.199951
1320.687382	1637.599976
1321.224891	1652.0
1321.762344	1663.599976
1322.299742	1656.800049
1322.837083	1659.400024
1323.374367	1663.800049
1323.911596	1655.0
1324.448768	1643.199951
1324.985885	1644.599976
1325.522945	1669.599976
1326.059949	1661.400024
1326.596896	1657.599976
1327.133788	1652.400024
1327.670623	1647.599976
1328.207403	1655.800049
1328.744126	1638.0
1329.280793	1653.599976
1329.817404	1639.400024
1330.353959	1658.199951
1330.890457	1641.199951
1331.4269	1655.800049
1331.963286	1642.800049
1332.499617	1648.800049
1333.035891	1642.0
1333.572109	1655.800049
1334.108271	1627.199951
1334.644377	1671.199951
1335.180427	1652.0
1335.71642	1643.400024
1336.252358	1639.599976
1336.78824	1639.599976
1337.324065	1662.599976
1337.859834	1643.199951
1338.395548	1648.599976
1338.931205	1636.400024
1339.466806	1642.199951
1340.002351	1635.0
1340.537841	1653.400024
1341.073274	1645.400024
1341.608651	1648.800049
1342.143972	1626.0
1342.679236	1647.400024
1343.214445	1632.599976
1343.749598	1628.599976
1344.284695	1638.199951
1344.819736	1649.0
1345.354721	1634.599976
1345.88965	1629.199951
1346.424522	1639.0
1346.959339	1636.0
1347.4941	1632.199951
1348.028805	1628.800049
1348.563453	1653.599976
1349.098046	1639.0
1349.632583	1645.0
1350.167064	1650.0
1350.701489	1654.0
1351.235858	1621.599976
1351.770171	1637.800049
1352.304428	1626.199951
1352.838629	1627.599976
1353.372774	1621.400024
1353.906863	1625.800049
1354.440896	1620.400024
1354.974873	1628.199951
1355.508794	1624.0
1356.04266	1626.599976
1356.576469	1637.400024
1357.110222	1625.400024
1357.64392	1616.800049
1358.177561	1620.800049
1358.711147	1632.800049
1359.244677	1630.400024
1359.778151	1637.0
1360.311569	1614.400024
1360.844931	1628.0
1361.378237	1626.0
1361.911487	1618.400024
1362.444682	1619.800049
1362.97782	1622.199951
1363.510903	1618.199951
1364.043929	1629.400024
1364.5769	1619.199951
1365.109815	1620.599976
1365.642674	1627.400024
1366.175478	1631.0
1366.708225	1626.599976
1367.240917	1606.400024
1367.773552	1635.400024
1368.306132	1638.800049
1368.838656	1619.800049
1369.371124	1626.400024
1369.903537	1632.400024
1370.435893	1629.800049
1370.968194	1635.0
1371.500439	1627.599976
1372.032628	1614.199951
1372.564761	1617.199951
1373.096838	1621.400024
1373.62886	1618.800049
1374.160826	1631.800049
1374.692736	1617.0
1375.22459	1622.0
1375.756388	1605.800049
1376.288131	1628.0
1376.819818	1617.199951
1377.351449	1604.199951
1377.883024	1614.199951
1378.414544	1613.0
1378.946008	1644.599976
1379.477416	1624.0
1380.008768	1630.400024
1380.540064	1608.400024
1381.071305	1620.400024
1381.60249	1608.0
1382.133619	1621.400024
1382.664693	1597.400024
1383.195711	1613.400024
1383.726673	1612.599976
1384.257579	1614.800049
1384.78843	1608.0
1385.319224	1612.800049
1385.849964	1626.199951
1386.380647	1619.599976
1386.911275	1631.599976
1387.441847	1663.0
1387.972363	1750.199951
1388.502824	2194.199951
1389.033229	2019.199951
1389.563578	1683.599976
1390.093872	1623.0
1390.62411	1621.599976
1391.154292	1624.800049
1391.684419	1605.800049
1392.744505	1595.400024
1393.274464	1615.400024
1393.804368	1603.599976
1394.334216	1609.599976
1394.864009	1631.800049
1395.393746	1613.0
1395.923427	1608.199951
1396.453053	1621.0
1396.982623	1606.0
1397.512138	1601.599976
1398.041597	1596.599976
1398.571	1605.199951
1399.100347	1617.0
1399.629639	1601.400024
1400.158876	1620.599976
1400.688056	1585.199951
1401.217182	1608.0
1401.746251	1615.199951
1402.275265	1605.800049
1402.804224	1597.199951
1403.333126	1612.0
1403.861974	1593.0
1404.390765	1596.800049
1404.919501	1624.599976
1405.448182	1604.599976
1405.976807	1611.599976
1406.505376	1616.599976
1407.03389	1609.199951
1407.562349	1610.800049
1408.090751	1611.0
1408.619098	1603.599976
1409.14739	1620.400024
1409.675626	1641.0
1410.203807	1636.800049
1410.731932	1612.199951
1411.260001	1613.0
1411.788015	1613.599976
1412.315974	1613.599976
1412.843877	1625.0
1413.371725	1588.800049
1413.899516	1613.599976
1414.427253	1596.599976
1414.954934	1610.199951
1415.482559	1601.599976
1416.010129	1605.800049
1416.537644	1599.0
1417.065103	1610.0
1417.592507	1622.0
1418.119855	1602.400024
1418.647147	1598.400024
1419.174385	1617.199951
1419.701566	1611.400024
1420.228692	1595.800049
1420.755763	1607.0
1421.282779	1610.599976
1421.809739	1608.400024
1422.336643	1606.599976
1422.863492	1601.0
1423.390286	1598.0
1423.917024	1592.199951
1424.443707	1599.199951
1424.970334	1591.199951
1425.496906	1604.800049
1426.023422	1591.400024
1426.549883	1604.0
1427.076289	1604.199951
1427.602639	1587.599976
1428.128934	1584.400024
1428.655174	1595.400024
1429.181358	1606.800049
1429.707486	1610.400024
1430.23356	1600.400024
1430.759578	1575.0
1431.28554	1597.0
1431.811448	1588.400024
1432.337299	1583.199951
1432.863096	1598.0
1433.388837	1591.400024
1433.914523	1598.199951
1434.440153	1588.599976
1434.965728	1579.0
1435.491248	1595.599976
1436.016712	1590.199951
1436.542122	1599.0
1437.067475	1581.800049
1437.592774	1598.0
1438.118017	1589.199951
1438.643205	1585.400024
1439.168337	1588.199951
1439.693414	1587.199951
1440.218436	1590.800049
1440.743403	1580.199951
1441.268314	1578.599976
1441.79317	1590.400024
1442.31797	1586.400024
1442.842716	1580.199951
1443.367406	1599.800049
1443.892041	1584.800049
1444.41662	1591.0
1444.941145	1588.0
1445.465614	1587.599976
1445.990027	1583.800049
1446.514386	1588.0
1447.038689	1594.599976
1447.562937	1592.599976
1448.08713	1570.599976
1448.611267	1598.800049
1449.13535	1588.400024
1449.659377	1595.199951
1450.183348	1576.599976
1450.707265	1582.400024
1451.231126	1593.800049
1451.754932	1579.400024
1452.278683	1588.0
1452.802379	1586.199951
1453.32602	1572.800049
1453.849605	1571.0
1454.373135	1588.599976
1454.89661	1576.199951
1455.42003	1568.599976
1455.943394	1571.800049
1456.466703	1568.400024
1456.989958	1586.0
1457.513157	1587.199951
1458.0363	1586.199951
1458.559389	1591.0
1459.082423	1567.599976
1459.605401	1591.0
1460.128324	1575.0
1460.651192	1561.599976
1461.174005	1571.199951
1461.696763	1576.800049
1462.219465	1587.400024
1462.742113	1566.800049
1463.264705	1569.400024
1463.787242	1582.199951
1464.309724	1577.800049
1464.832151	1574.199951
1465.354523	1565.0
1465.87684	1569.800049
1466.399102	1566.400024
1466.921308	1567.0
1467.443459	1575.400024
1467.965556	1573.599976
1468.487597	1574.0
1469.009583	1572.199951
1469.531514	1558.0
1470.05339	1549.599976
1470.575211	1562.800049
1471.096977	1582.199951
1471.618688	1569.400024
1472.140343	1559.400024
1472.661944	1562.0
1473.18349	1566.199951
1473.70498	1563.0
1474.226416	1566.599976
1474.747796	1563.199951
1475.269122	1555.599976
1475.790392	1575.400024
1476.311607	1568.400024
1476.832768	1556.400024
1477.353873	1561.199951
1477.874923	1585.800049
1478.395918	1559.599976
1478.916859	1575.0
1479.437744	1571.199951
1479.958574	1561.0
1480.479349	1575.599976
1481.00007	1547.199951
1481.520735	1569.800049
1482.041345	1572.199951
1482.5619	1541.599976
1483.082401	1564.599976
1483.602846	1555.0
1484.123236	1555.800049
1484.643572	1550.800049
1485.163852	1563.0
1485.684077	1545.199951
1486.204248	1555.199951
1486.724363	1544.0
1487.244424	1549.0
1487.76443	1553.0
1488.28438	1549.199951
1488.804276	1544.599976
1489.324117	1568.800049
1489.843903	1546.400024
1490.363634	1556.599976
1490.88331	1548.599976
1491.402931	1535.0
1491.922497	1559.599976
1492.442008	1531.199951
1492.961465	1546.599976
1493.480866	1562.400024
1494.000213	1556.0
1494.519505	1545.599976
1495.038741	1552.599976
1495.557923	1540.0
1496.07705	1554.199951
1496.596122	1540.800049
1497.11514	1542.800049
1497.634102	1548.400024
1498.15301	1556.599976
1498.671862	1534.400024
1499.19066	1553.0
1499.709403	1562.400024
1500.228091	1538.400024
1500.746725	1539.800049
1501.265303	1549.0
1501.783827	1526.400024
1502.302296	1550.0
1502.820709	1538.800049
1503.339069	1561.0
1503.857373	1549.0
1504.375622	1555.400024
1504.893817	1540.199951
1505.411957	1548.199951
1505.930042	1543.800049
1506.448072	1550.400024
1506.966048	1541.599976
1507.483968	1544.800049
1508.001834	1553.800049
1508.519645	1531.400024
1509.037401	1530.599976
1509.555103	1545.599976
1510.07275	1530.599976
1510.590342	1531.0
1511.107879	1536.400024
1511.625361	1538.800049
1512.142789	1540.599976
1512.660162	1526.400024
1513.17748	1522.599976
1513.694743	1537.800049
1514.211952	1535.0
1514.729106	1534.800049
1515.246205	1560.199951
1515.76325	1551.199951
1516.280239	1537.599976
1516.797174	1536.800049
1517.314055	1537.599976
1517.83088	1541.800049
1518.347651	1527.800049
1518.864367	1544.0
1519.381029	1550.400024
1519.897635	1536.400024
1520.414187	1542.800049
1520.930685	1525.199951
1521.447127	1548.599976
1521.963515	1523.0
1522.479849	1536.599976
1522.996127	1533.800049
1523.512351	1538.599976
1524.028521	1524.800049
1524.544635	1523.199951
1525.060695	1538.0
1525.576701	1541.400024
1526.092651	1538.400024
1526.608547	1515.800049
1527.124389	1529.400024
1527.640175	1530.800049
1528.155907	1543.400024
1528.671585	1527.0
1529.187208	1554.800049
1529.702776	1524.199951
1530.218289	1522.0
1530.733748	1525.0
1531.249153	1549.800049
1531.764502	1536.599976
1532.279798	1538.400024
1532.795038	1525.0
1533.310224	1516.199951
1533.825355	1541.800049
1534.340432	1535.0
1534.855454	1536.0
1535.370422	1532.400024
1535.885335	1536.800049
1536.400193	1528.400024
1536.914997	1528.199951
1537.429746	1526.400024
1537.944441	1533.400024
1538.459081	1518.199951
1538.973667	1522.400024
1539.488198	1524.800049
1540.002674	1532.800049
1540.517096	1546.0
1541.031464	1523.199951
1541.545777	1529.199951
1542.060035	1546.0
1542.574239	1539.599976
1543.088388	1535.599976
1543.602483	1527.199951
1544.116523	1524.599976
1544.630509	1515.599976
1545.14444	1538.199951
1545.658317	1520.0
1546.172139	1537.199951
1546.685907	1506.0
1547.19962	1529.800049
1547.713279	1516.199951
1548.226883	1521.0
1548.740433	1527.599976
1549.253929	1529.0
1549.76737	1537.199951
1550.280756	1539.800049
1550.794088	1530.400024
1551.307365	1523.800049
1551.820588	1513.800049
1552.333757	1535.0
1552.846871	1533.199951
1553.359931	1527.0
1553.872936	1530.0
1554.385887	1543.199951
1554.898783	1520.800049
1555.411625	1524.400024
1555.924413	1532.0
1556.437146	1525.400024
1556.949824	1516.199951
1557.462449	1523.199951
1557.975019	1518.199951
1558.487534	1534.0
1558.999995	1526.599976
1559.512402	1511.599976
1560.024754	1531.599976
1560.537052	1532.599976
1561.049295	1528.599976
1561.561485	1516.599976
1562.073619	1535.599976
1562.5857	1502.400024
1563.097726	1510.199951
1563.609697	1513.599976
1564.121615	1536.599976
1564.633477	1533.199951
1565.145286	1513.599976
1565.65704	1525.800049
1566.16874	1523.800049
1566.680386	1516.400024
1567.191977	1515.199951
1567.703514	1524.0
1568.214996	1534.400024
1568.726424	1536.800049
1569.237798	1516.400024
1569.749118	1534.0
1570.260383	1524.599976
1570.771594	1526.199951
1571.28275	1522.400024
1571.793853	1530.199951
1572.304901	1532.0
1572.815895	1531.199951
1573.326834	1524.599976
1573.837719	1514.199951
1574.34855	1527.199951
1574.859327	1512.800049
1575.370049	1523.199951
1575.880717	1530.400024
1576.391331	1535.400024
1576.90189	1515.599976
1577.412395	1526.400024
1577.922846	1527.599976
1578.433243	1523.199951
1578.943586	1523.199951
1579.453874	1523.599976
1579.964108	1532.400024
1580.474288	1506.199951
1580.984413	1512.199951
1581.494484	1501.400024
1582.004501	1510.599976
1582.514464	1507.800049
1583.024373	1511.199951
1583.534227	1522.400024
1584.044028	1516.199951
1584.553774	1538.199951
1585.063465	1503.400024
1585.573103	1518.0
1586.082687	1519.599976
1586.592216	1537.800049
1587.101691	1507.400024
1587.611112	1525.199951
1588.120478	1520.599976
1588.629791	1510.0
1589.139049	1512.199951
1589.648253	1506.400024
1590.157403	1502.199951
1590.666499	1505.599976
1591.175541	1517.599976
1591.684529	1515.400024
1592.193462	1526.400024
