1043.112314	3820.800049
1043.678594	3850.399902
1044.244816	3831.800049
1044.810979	3819.0
1045.377084	3801.600098
1045.943132	3834.800049
1046.509121	3798.0
1047.075052	3807.399902
1047.640924	3790.800049
1048.206739	3803.600098
1048.772495	3799.399902
1049.338193	3800.399902
1049.903833	3807.199951
1050.469415	3814.800049
1051.034939	3805.199951
1051.600404	3785.0
1052.165811	3795.600098
1052.731161	3801.600098
1053.296452	3746.0
1053.861685	3800.399902
1054.426859	3795.600098
1054.991976	3798.800049
1055.557035	3771.199951
1056.122035	3820.399902
1056.686978	3765.399902
1057.251862	3792.600098
1057.816688	3782.600098
1058.381456	3778.800049
1058.946166	3761.199951
1059.510818	3787.0
1060.075411	3766.600098
1060.639947	3776.800049
1061.204425	3772.399902
1061.768844	3801.0
1062.333206	3741.199951
1062.897509	3763.800049
1063.461754	3759.199951
1064.025942	3766.600098
1064.590071	3710.0
1065.154142	3776.199951
1065.718155	3719.0
1066.28211	3770.0
1066.846007	3740.0
1067.409846	3783.399902
1067.973627	3694.0
1068.53735	3745.199951
1069.101014	3715.0
1069.664621	3718.600098
1070.22817	3738.199951
1070.791661	3772.199951
1071.355094	3718.199951
1071.918469	3728.600098
1072.481785	3711.0
1073.045044	3717.199951
1073.608245	3734.199951
1074.171388	3709.600098
1074.734473	3728.800049
1075.297499	3722.600098
1075.860468	3719.600098
1076.423379	3727.399902
1076.986232	3680.0
1077.549027	3695.0
1078.111764	3700.800049
1078.674443	3752.399902
1079.237064	3672.0
1079.799627	3686.0
1080.362132	3649.199951
1080.92458	3702.199951
1081.486969	3671.199951
1082.0493	3695.0
1082.611574	3658.0
1083.173789	3654.399902
1083.735947	3639.600098
1084.298047	3664.399902
1084.860088	3665.800049
1085.422072	3664.600098
1085.983998	3660.800049
1086.545866	3635.399902
1087.107677	3614.800049
1087.669429	3657.0
1088.231123	3615.600098
1088.79276	3659.199951
1089.354338	3603.399902
1089.915859	3608.0
1090.477322	3600.0
1091.038727	3621.199951
1091.600074	3590.600098
1092.161363	3650.800049
1092.722595	3605.600098
1093.283768	3628.199951
1093.844884	3595.600098
1094.405942	3628.0
1094.966942	3595.800049
1095.527884	3623.199951
1096.088768	3575.399902
1096.649595	3603.600098
1097.210364	3559.800049
1097.771074	3623.600098
1098.331728	3578.800049
1098.892323	3587.199951
1099.45286	3563.0
1100.01334	3575.399902
1100.573762	3569.0
1101.134126	3579.0
1101.694432	3539.399902
1102.25468	3548.600098
1102.814871	3503.800049
1103.375004	3546.199951
1103.935079	3538.199951
1104.495096	3529.0
1105.055056	3530.800049
1105.614958	3532.600098
1106.174802	3521.199951
1106.734588	3496.600098
1107.294317	3492.0
1107.853987	3519.399902
1108.4136	3504.600098
1108.973156	3546.0
1109.532653	3505.600098
1110.092093	3488.399902
1110.651475	3510.399902
1111.2108	3506.600098
1111.770066	3476.800049
1112.329275	3485.800049
1112.888426	3459.0
1113.44752	3494.399902
1114.006556	3491.0
1114.565534	3507.800049
1115.124454	3476.399902
1115.683317	3506.399902
1116.242122	3448.199951
1116.800869	3504.399902
1117.359559	3467.600098
1117.918191	3513.600098
1118.476765	3428.399902
1119.035282	3450.600098
1119.593741	3452.199951
1120.152142	3475.0
1120.710486	3471.600098
1121.268772	3465.399902
1121.827	3456.0
1122.385171	3462.199951
1122.943284	3440.0
1123.50134	3463.800049
1124.059337	3445.399902
1124.617277	3458.800049
1125.17516	3412.800049
1125.732985	3417.0
1126.290752	3426.600098
1126.848462	3470.600098
1127.406114	3442.0
1127.963709	3439.199951
1128.521245	3425.800049
1129.078725	3446.399902
1129.636146	3431.399902
1130.193511	3456.399902
1130.750817	3418.600098
1131.308066	3421.600098
1131.865257	3433.800049
1132.422391	3450.199951
1132.979467	3437.399902
1133.536486	3449.800049
1134.093447	3383.800049
1134.650351	3419.199951
1135.207197	3399.0
1135.763985	3429.600098
1136.320716	3407.600098
1136.877389	3423.199951
1137.434005	3409.800049
1137.990563	3437.800049
1138.547064	3412.399902
1139.103507	3421.800049
1139.659893	3396.800049
1140.216221	3427.0
1140.772492	3415.0
1141.328705	3391.199951
1141.884861	3409.399902
1142.440959	3432.800049
1142.997	3401.0
1143.552983	3438.399902
1144.108908	3384.399902
1144.664777	3409.199951
1145.220587	3378.600098
1145.776341	3409.800049
1146.332036	3379.199951
1146.887675	3410.399902
1147.443256	3392.199951
1147.998779	3399.600098
1148.554245	3398.0
1149.109653	3407.199951
1149.665004	3422.0
1150.220298	3458.800049
1150.775534	3477.0
1151.330713	3404.800049
1151.885834	3417.600098
1152.440898	3420.0
1152.995904	3405.600098
1153.550853	3378.800049
1154.105745	3378.600098
1154.660579	3396.399902
1155.215356	3385.199951
1155.770075	3380.800049
1156.324737	3383.399902
1156.879341	3381.199951
1157.433889	3380.600098
1157.988378	3395.600098
1158.542811	3403.600098
1159.097186	3401.0
1159.651503	3396.0
1160.205764	3378.600098
1160.759966	3399.0
1161.314112	3384.399902
1161.8682	3373.399902
1162.422231	3390.600098
1162.976204	3380.800049
1163.53012	3399.199951
1164.083979	3388.800049
1164.637781	3364.199951
1165.191525	3379.800049
1165.745211	3375.600098
1166.298841	3390.600098
1166.852413	3362.399902
1167.405928	3373.0
1167.959385	3380.399902
1168.512785	3359.600098
1169.066128	3353.399902
1169.619413	3392.0
1170.172642	3397.0
1170.725813	3374.199951
1171.278926	3335.600098
1171.831983	3337.399902
1172.384982	3326.800049
1172.937923	3367.600098
1173.490808	3332.399902
1174.043635	3362.0
1174.596405	3357.0
1175.149118	3344.800049
1175.701773	3343.600098
1176.254371	3307.0
1176.806912	3329.199951
1177.359396	3326.600098
1177.911822	3356.199951
1178.464192	3333.399902
1179.016503	3330.600098
1179.568758	3322.0
1180.120956	3282.0
1180.673096	3312.800049
1181.225179	3341.0
1181.777205	3338.600098
1182.329173	3330.600098
1182.881085	3313.800049
1183.432939	3316.600098
1183.984736	3308.600098
1184.536476	3329.800049
1185.088158	3317.600098
1185.639784	3307.0
1186.191352	3331.800049
1186.742863	3327.800049
1187.294317	3299.399902
1187.845713	3309.199951
1188.397053	3304.399902
1188.948335	3307.0
1189.499561	3332.0
1190.050729	3298.800049
1190.601839	3290.600098
1191.152893	3293.199951
1191.70389	3282.0
1192.254829	3299.600098
1192.805712	3315.0
1193.356537	3295.0
1193.907305	3306.800049
1194.458016	3273.199951
1195.00867	3283.199951
1195.559266	3255.0
1196.109806	3288.600098
1196.660288	3315.199951
1197.210714	3277.800049
1197.761082	3271.399902
1198.311393	3269.399902
1198.861647	3277.199951
1199.411844	3245.800049
1199.961984	3248.0
1200.512067	3261.399902
1201.062092	3241.800049
1201.612061	3270.199951
1202.161973	3284.800049
1202.711827	3260.800049
1203.261625	3253.0
1203.811365	3237.600098
1204.361048	3261.600098
1204.910675	3250.0
1205.460244	3251.600098
1206.009756	3269.0
1206.559211	3225.199951
1207.10861	3225.800049
1207.657951	3238.0
1208.207235	3261.199951
1208.756462	3205.800049
1209.305632	3224.199951
1209.854745	3254.600098
1210.403801	3234.0
1210.9528	3233.0
1211.501742	3230.399902
1212.050627	3214.0
1212.599455	3214.399902
1213.148226	3229.0
1213.69694	3214.399902
1214.245597	3212.600098
1214.794197	3215.399902
1215.34274	3228.800049
1215.891227	3201.800049
1216.439656	3237.0
1216.988028	3170.800049
1217.536343	3207.199951
1218.084602	3182.0
1218.632803	3204.800049
1219.180947	3191.199951
1219.729035	3194.199951
1220.277065	3183.0
1220.825039	3196.399902
1221.372956	3196.800049
1221.920815	3205.0
1222.468618	3186.399902
1223.016364	3175.800049
1223.564053	3170.800049
1224.111685	3184.600098
1224.65926	3180.600098
1225.206779	3148.199951
1225.75424	3189.199951
1226.301645	3142.399902
1226.848992	3163.800049
1227.396283	3162.600098
1227.943517	3170.800049
1228.490694	3170.199951
1229.037814	3146.0
1229.584877	3192.0
1230.131883	3169.0
1230.678833	3163.0
1231.225725	3188.199951
1231.772561	3172.800049
1232.31934	3174.800049
1232.866062	3148.600098
1233.412727	3183.199951
1233.959336	3143.600098
1234.505887	3159.0
1235.052382	3144.800049
1235.59882	3138.399902
1236.145201	3144.800049
1236.691525	3157.199951
1237.237793	3129.399902
1237.784003	3169.600098
1238.330157	3125.199951
1238.876254	3140.199951
1239.422295	3114.0
1239.968278	3112.800049
1240.514205	3135.600098
1241.060074	3139.399902
1241.605888	3130.399902
1242.151644	3149.0
1242.697343	3120.600098
1243.242986	3110.399902
1243.788572	3124.399902
1244.334101	3133.199951
1244.879574	3114.199951
1245.42499	3122.800049
1245.970349	3109.199951
1246.515651	3123.800049
1247.060896	3134.800049
1247.606085	3085.800049
1248.151217	3124.600098
1248.696292	3117.800049
1249.241311	3144.199951
1249.786273	3107.600098
1250.331178	3121.199951
1250.876026	3093.0
1251.420818	3096.800049
1251.965553	3105.199951
1252.510231	3094.199951
1253.054853	3085.399902
1253.599418	3128.199951
1254.143926	3063.399902
1254.688377	3100.199951
1255.232772	3083.199951
1255.77711	3097.600098
1256.321392	3070.199951
1256.865617	3108.199951
1257.409785	3082.0
1257.953896	3092.399902
1258.497951	3074.199951
1259.041949	3060.600098
1259.585891	3074.399902
1260.129776	3072.399902
1260.673604	3068.399902
1261.217375	3089.0
1261.76109	3099.0
1262.304749	3093.199951
1262.84835	3063.399902
1263.391896	3062.0
1263.935384	3085.199951
1264.478816	3075.800049
1265.022191	3108.399902
1265.56551	3072.800049
1266.108772	3073.199951
1266.651977	3056.800049
1267.195126	3053.0
1267.738218	3041.0
1268.281254	3073.399902
1268.824233	3029.399902
1269.367155	3050.800049
1269.910021	3022.199951
1270.452831	3051.600098
1270.995583	3026.199951
1271.53828	3049.199951
1272.080919	3039.399902
1272.623502	3032.199951
1273.166029	3045.800049
1273.708499	3041.0
1274.250912	3028.600098
1274.793269	3057.399902
1275.33557	3008.0
1275.877814	3034.199951
1276.420001	3039.800049
1276.962132	3005.600098
1277.504206	3054.0
1278.046224	3012.199951
1278.588185	3010.0
1279.13009	3035.800049
1279.671938	3012.800049
1280.21373	3026.199951
1280.755465	3017.0
1281.297144	3032.399902
1281.838766	3009.800049
1282.380332	3037.399902
1282.921841	3020.800049
1283.463294	3039.199951
1284.004691	3108.800049
1284.546031	3255.399902
1285.087314	3521.399902
1285.628541	3278.800049
1286.169711	3119.800049
1286.710826	3007.399902
1287.251883	3025.199951
1287.792884	3014.0
1288.333829	3014.600098
1288.874717	2987.800049
1289.415549	3015.600098
1289.956325	2990.800049
1290.497044	2990.399902
1291.037706	2987.399902
1291.578313	3003.600098
1292.118862	3000.800049
1292.659356	2986.399902
1293.199793	2965.0
1293.740173	2989.399902
1294.280498	2987.600098
1294.820765	2995.0
1295.360977	2991.600098
1295.901132	2975.600098
1296.44123	2983.800049
1296.981273	2998.399902
1297.521259	2965.600098
1298.061188	2973.600098
1298.601061	2973.800049
1299.140878	2947.399902
1299.680639	2961.199951
1300.220343	2958.199951
1300.75999	2964.600098
1301.299582	2932.399902
1301.839117	2960.800049
1302.378596	2954.199951
1302.918018	2958.199951
1303.457384	2951.600098
1303.996694	2965.199951
1304.535947	2952.600098
1305.075145	2954.399902
1305.614285	2956.600098
1306.15337	2957.600098
1306.692398	2957.399902
1307.23137	2936.199951
1307.770286	2939.199951
1308.309145	2928.800049
1308.847948	2953.600098
1309.386695	2923.399902
1309.925385	2941.199951
1310.464019	2919.800049
1311.002597	2959.600098
1311.541119	2914.399902
1312.079584	2955.800049
1312.617993	2916.600098
1313.156346	2923.800049
1313.694643	2930.600098
1314.232883	2949.800049
1314.771067	2926.0
1315.309195	2917.800049
1315.847267	2902.399902
1316.385282	2922.0
1316.923241	2911.399902
1317.461144	2916.0
1317.998991	2903.0
1318.536782	2912.199951
1319.074516	2923.800049
1319.612194	2900.399902
1320.149816	2888.600098
1320.687382	2870.600098
1321.224891	2907.399902
1321.762344	2899.800049
1322.299742	2927.600098
1322.837083	2871.800049
1323.374367	2895.399902
1323.911596	2872.600098
1324.448768	2922.199951
1324.985885	2888.0
1325.522945	2887.600098
1326.059949	2861.600098
1327.133788	2874.199951
1327.670623	2916.199951
1328.207403	2887.199951
1328.744126	2882.0
1329.280793	2901.399902
1329.817404	2890.399902
1330.353959	2851.399902
1330.890457	2872.0
1331.4269	2868.0
1331.963286	2867.800049
1332.499617	2860.399902
1333.035891	2849.800049
1333.572109	2893.399902
1334.108271	2855.800049
1334.644377	2868.600098
1335.180427	2866.600098
1335.71642	2882.600098
1336.252358	2881.199951
1336.78824	2866.600098
1337.324065	2856.199951
1337.859834	2879.199951
1338.395548	2858.399902
1338.931205	2864.0
1339.466806	2854.0
1340.002351	2869.399902
1340.537841	2851.0
1341.073274	2854.199951
1341.608651	2813.800049
1342.143972	2849.600098
1342.679236	2841.199951
1343.214445	2837.800049
1343.749598	2825.800049
1344.284695	2823.399902
1344.819736	2840.199951
1345.354721	2832.199951
1345.88965	2884.600098
1346.424522	2841.800049
1346.959339	2833.800049
1347.4941	2829.399902
1348.028805	2851.199951
1348.563453	2803.600098
1349.098046	2825.0
1349.632583	2827.800049
1350.167064	2832.600098
1350.701489	2858.800049
1351.235858	2844.600098
1351.770171	2802.399902
1352.304428	2817.600098
1352.838629	2853.399902
1353.372774	2833.600098
1353.906863	2820.0
1354.440896	2806.800049
1354.974873	2836.199951
1355.508794	2788.600098
1356.04266	2816.600098
1356.576469	2809.0
1357.110222	2815.600098
1357.64392	2808.800049
1358.177561	2820.0
1358.711147	2776.0
1359.244677	2811.0
1359.778151	2791.399902
1360.311569	2779.0
1360.844931	2784.0
1361.378237	2773.0
1361.911487	2804.0
1362.444682	2813.0
1362.97782	2793.199951
1363.510903	2777.600098
1364.043929	2779.600098
1364.5769	2772.600098
1365.109815	2773.800049
1365.642674	2795.0
1366.175478	2788.199951
1366.708225	2766.0
1367.240917	2789.0
1367.773552	2754.600098
1368.306132	2763.600098
1368.838656	2761.199951
1369.371124	2780.800049
1369.903537	2778.0
1370.435893	2763.199951
1370.968194	2764.600098
1371.500439	2756.800049
1372.032628	2771.800049
1372.564761	2764.600098
1373.096838	2750.199951
1373.62886	2732.800049
1374.160826	2766.199951
1374.692736	2766.0
1375.22459	2757.399902
1375.756388	2760.0
1376.288131	2743.0
1376.819818	2744.800049
1377.351449	2769.600098
1377.883024	2751.600098
1378.414544	2755.399902
1378.946008	2738.600098
1379.477416	2757.199951
1380.008768	2756.199951
1380.540064	2748.0
1381.071305	2758.600098
1381.60249	2719.399902
1382.133619	2746.600098
1382.664693	2750.800049
1383.195711	2739.399902
1383.726673	2731.399902
1384.257579	2742.600098
1384.78843	2726.199951
1385.319224	2766.600098
1385.849964	2719.199951
1386.380647	2742.800049
1386.911275	2761.0
1387.441847	2882.0
1387.972363	3279.199951
1388.502824	3571.0
1389.033229	3010.399902
1389.563578	2794.0
1390.093872	2740.0
1390.62411	2723.800049
1391.154292	2724.800049
1391.684419	2703.0
1392.214489	2742.399902
1392.744505	2709.600098
1393.274464	2717.199951
1393.804368	2692.199951
1394.334216	2718.399902
1394.864009	2679.199951
1395.393746	2718.0
1395.923427	2687.800049
1396.453053	2693.600098
1396.982623	2702.0
1397.512138	2698.399902
1398.041597	2697.800049
1398.571	2713.399902
1399.100347	2711.0
1399.629639	2687.800049
1400.158876	2679.600098
1400.688056	2717.0
1401.217182	2724.199951
1401.746251	2689.0
1402.275265	2688.399902
1402.804224	2701.800049
1403.333126	2681.0
1403.861974	2688.0
1404.390765	2678.0
1404.919501	2688.199951
1405.448182	2709.800049
1405.976807	2696.600098
1406.505376	2691.600098
1407.03389	2684.399902
1407.562349	2688.199951
1408.090751	2694.399902
1408.619098	2679.0
1409.14739	2713.0
1409.675626	2758.199951
1410.203807	2721.0
1410.731932	2713.0
1411.260001	2658.800049
1411.788015	2688.399902
1412.315974	2673.600098
1412.843877	2670.199951
1413.371725	2697.600098
1413.899516	2658.600098
1414.427253	2686.600098
1414.954934	2672.199951
1415.482559	2675.0
1416.010129	2649.199951
1416.537644	2671.199951
1417.065103	2680.399902
1417.592507	2661.0
1418.119855	2671.399902
1418.647147	2664.0
1419.174385	2647.800049
1419.701566	2645.800049
1420.228692	2668.0
1420.755763	2649.600098
1421.282779	2669.0
1421.809739	2662.800049
1422.336643	2654.199951
1422.863492	2655.600098
1423.390286	2653.800049
1423.917024	2649.800049
1424.443707	2662.399902
1424.970334	2635.600098
1425.496906	2655.399902
1426.023422	2650.600098
1426.549883	2657.0
1427.076289	2654.800049
1427.602639	2649.800049
1428.128934	2629.600098
1428.655174	2637.0
1429.181358	2614.199951
1429.707486	2624.399902
1430.23356	2638.199951
1430.759578	2657.800049
1431.28554	2635.800049
1431.811448	2629.600098
1432.337299	2629.0
1432.863096	2629.199951
1433.388837	2632.399902
1433.914523	2627.800049
1434.440153	2618.399902
1434.965728	2631.800049
1435.491248	2613.800049
1436.016712	2619.0
1436.542122	2618.399902
1437.067475	2609.800049
1437.592774	2635.399902
1438.118017	2607.199951
1438.643205	2622.800049
1439.168337	2608.800049
1439.693414	2620.0
1440.218436	2605.600098
1440.743403	2621.399902
1441.268314	2608.0
1441.79317	2591.399902
1442.31797	2598.199951
1442.842716	2606.600098
1443.367406	2611.399902
1443.892041	2591.0
1444.41662	2595.800049
1444.941145	2595.199951
1445.465614	2590.600098
1445.990027	2586.0
1446.514386	2615.399902
1447.038689	2613.600098
1447.562937	2607.800049
1448.08713	2584.199951
1448.611267	2573.399902
1449.13535	2597.0
1449.659377	2574.399902
1450.183348	2573.399902
1450.707265	2586.199951
1451.231126	2593.0
1451.754932	2574.199951
1452.278683	2553.800049
1452.802379	2591.0
1453.32602	2585.600098
1453.849605	2586.399902
1454.373135	2549.399902
1454.89661	2573.199951
1455.42003	2566.800049
1455.943394	2536.199951
1456.466703	2556.0
1456.989958	2579.600098
1457.513157	2572.600098
1458.0363	2581.0
1458.559389	2570.0
1459.082423	2552.199951
1459.605401	2559.800049
1460.128324	2557.0
1460.651192	2565.600098
1461.174005	2550.800049
1461.696763	2558.800049
1462.219465	2545.199951
1462.742113	2572.199951
1463.264705	2550.399902
1463.787242	2546.800049
1464.309724	2548.399902
1464.832151	2567.600098
1465.354523	2533.399902
1465.87684	2572.399902
1466.399102	2557.0
1466.921308	2558.800049
1467.443459	2548.199951
1467.965556	2547.0
1468.487597	2549.0
1469.009583	2533.800049
1469.531514	2565.600098
1470.05339	2540.0
1470.575211	2541.800049
1471.096977	2547.800049
1471.618688	2555.600098
1472.140343	2541.199951
1472.661944	2519.399902
1473.18349	2529.600098
1473.70498	2520.199951
1474.226416	2539.199951
1474.747796	2544.0
1475.269122	2497.199951
1475.790392	2513.600098
1476.311607	2513.600098
1476.832768	2521.0
1477.353873	2511.800049
1477.874923	2502.399902
1478.395918	2489.399902
1478.916859	2519.199951
1479.437744	2497.600098
1479.958574	2503.199951
1480.479349	2499.399902
1481.00007	2512.0
1481.520735	2525.800049
1482.041345	2523.800049
1482.5619	2494.199951
1483.082401	2505.0
1483.602846	2497.800049
1484.123236	2496.600098
1484.643572	2500.0
1485.163852	2514.399902
1485.684077	2527.600098
1486.204248	2479.600098
1486.724363	2497.199951
1487.244424	2487.800049
1487.76443	2502.399902
1488.28438	2490.800049
1488.804276	2487.600098
1489.324117	2499.199951
1489.843903	2480.800049
1490.363634	2480.399902
1490.88331	2468.0
1491.402931	2465.800049
1491.922497	2503.0
1492.442008	2485.800049
1492.961465	2482.199951
1493.480866	2452.800049
1494.000213	2462.399902
1494.519505	2454.399902
1495.038741	2465.199951
1495.557923	2463.800049
1496.07705	2477.199951
1496.596122	2459.399902
1497.11514	2476.399902
1497.634102	2466.199951
1498.15301	2468.600098
1498.671862	2479.399902
1499.19066	2491.199951
1499.709403	2483.199951
1500.228091	2458.199951
1500.746725	2442.199951
1501.265303	2437.399902
1501.783827	2468.800049
1502.302296	2444.0
1502.820709	2462.600098
1503.339069	2461.399902
1503.857373	2460.600098
1504.375622	2440.199951
1504.893817	2458.399902
1505.411957	2416.800049
1505.930042	2417.0
1506.448072	2429.199951
1506.966048	2438.399902
1507.483968	2440.399902
1508.001834	2442.800049
1508.519645	2431.0
1509.037401	2430.199951
1509.555103	2437.0
1510.07275	2438.399902
1510.590342	2441.199951
1511.107879	2423.600098
1511.625361	2427.199951
1512.142789	2436.0
1512.660162	2430.199951
1513.17748	2448.0
1513.694743	2439.199951
1514.211952	2416.199951
1514.729106	2426.0
1515.246205	2444.399902
1515.76325	2423.399902
1516.280239	2428.0
1516.797174	2407.399902
1517.314055	2421.199951
1517.83088	2438.399902
1518.347651	2423.800049
1518.864367	2448.0
1519.381029	2413.0
1519.897635	2438.399902
1520.414187	2421.0
1520.930685	2427.800049
1521.447127	2402.199951
1521.963515	2424.600098
1522.479849	2428.600098
1522.996127	2416.0
1523.512351	2418.0
1524.028521	2419.0
1524.544635	2437.199951
1525.060695	2407.0
1525.576701	2436.199951
1526.092651	2408.0
1526.608547	2437.199951
1527.124389	2399.600098
1527.640175	2420.399902
1528.155907	2415.0
1528.671585	2407.199951
1529.187208	2409.600098
1529.702776	2399.600098
1530.218289	2428.800049
1530.733748	2380.800049
1531.249153	2430.800049
1531.764502	2411.399902
1532.279798	2412.0
1532.795038	2406.600098
1533.310224	2416.199951
1533.825355	2404.199951
1534.340432	2399.800049
1534.855454	2404.600098
1535.370422	2397.199951
1535.885335	2428.0
1536.400193	2398.399902
1536.914997	2409.600098
1537.429746	2376.399902
1537.944441	2388.199951
1538.459081	2369.399902
1538.973667	2402.199951
1539.488198	2388.0
1540.002674	2400.600098
1540.517096	2401.0
1541.031464	2408.199951
1541.545777	2403.800049
1542.060035	2371.199951
1542.574239	2417.399902
1543.088388	2397.199951
1543.602483	2395.199951
1544.116523	2399.600098
1544.630509	2402.0
1545.14444	2393.600098
1545.658317	2389.0
1546.172139	2399.600098
1546.685907	2392.199951
1547.19962	2405.399902
1547.713279	2364.0
1548.226883	2396.800049
1548.740433	2373.199951
1549.253929	2375.800049
1549.76737	2375.600098
1550.280756	2393.0
1550.794088	2376.399902
1551.307365	2386.0
1551.820588	2386.600098
1552.333757	2375.199951
1552.846871	2379.600098
1553.359931	2365.800049
1553.872936	2390.399902
1554.385887	2406.399902
1554.898783	2382.199951
1555.411625	2378.0
1555.924413	2405.600098
1556.437146	2378.600098
1556.949824	2374.0
1557.462449	2378.199951
1557.975019	2369.399902
1558.487534	2388.0
1558.999995	2365.399902
1559.512402	2370.399902
1560.024754	2331.800049
1560.537052	2383.399902
1561.049295	2378.199951
1561.561485	2384.0
1562.073619	2361.600098
1562.5857	2382.600098
1563.097726	2374.199951
1563.609697	2342.399902
1564.121615	2371.0
1564.633477	2369.800049
1565.145286	2366.600098
1565.65704	2364.199951
1566.16874	2386.0
1566.680386	2348.0
1567.191977	2377.800049
1567.703514	2347.600098
1568.214996	2358.600098
1568.726424	2367.0
1569.237798	2353.0
1569.749118	2338.0
1570.260383	2340.199951
1570.771594	2363.199951
1571.28275	2361.199951
1571.793853	2375.0
1572.304901	2356.399902
1572.815895	2366.399902
1573.326834	2363.399902
1573.837719	2349.0
1574.34855	2350.600098
1574.859327	2352.199951
1575.370049	2381.199951
1575.880717	2346.199951
1576.391331	2356.600098
1576.90189	2353.800049
1577.412395	2343.0
1577.922846	2353.800049
1578.433243	2341.600098
1578.943586	2347.0
1579.453874	2331.399902
1579.964108	2351.199951
1580.474288	2329.199951
1580.984413	2332.600098
1581.494484	2328.600098
1582.004501	2330.800049
1582.514464	2321.399902
1583.024373	2337.0
1583.534227	2322.800049
1584.044028	2347.399902
1584.553774	2347.600098
1585.063465	2342.0
1585.573103	2344.199951
1586.082687	2324.199951
1586.592216	2328.199951
1587.101691	2314.0
1587.611112	2339.600098
1588.120478	2302.199951
1588.629791	2350.399902
1589.139049	2334.0
1589.648253	2322.0
1590.157403	2317.800049
1590.666499	2324.399902
1591.175541	2354.0
1591.684529	2305.0
1592.193462	2328.600098
