1042.452273	694.0
1043.018714	689.0
1043.585098	690.0
1044.151424	691.0
1044.717692	690.0
1045.283903	688.25
1045.850056	691.0
1046.416151	689.25
1046.982188	686.5
1047.548167	683.25
1048.114089	689.5
1048.679953	684.25
1049.24576	682.5
1049.811509	685.25
1050.3772	690.25
1050.942833	686.5
1051.508408	682.0
1052.073926	687.75
1052.639387	678.25
1053.204789	683.5
1053.770134	680.0
1054.335421	678.25
1054.900651	682.0
1055.465823	681.0
1056.030937	679.75
1056.595993	680.75
1057.160992	684.25
1057.725934	681.25
1058.290817	679.0
1058.855643	680.5
1059.420411	683.25
1059.985122	682.5
1060.549775	680.25
1061.114371	681.0
1061.678908	679.25
1062.243389	682.0
1062.807811	685.5
1063.372176	681.25
1063.936483	677.75
1064.500733	679.25
1065.064925	680.0
1065.62906	682.25
1066.193137	679.25
1066.757156	678.25
1067.321118	680.25
1067.885022	680.25
1068.448869	681.0
1069.012658	675.75
1069.57639	679.5
1070.140063	688.5
1070.70368	682.75
1071.267239	677.75
1071.83074	678.5
1072.394184	678.25
1072.95757	677.75
1073.520899	676.25
1074.08417	677.0
1074.647383	679.0
1075.21054	677.5
1075.773638	678.0
1076.336679	674.75
1076.899663	677.5
1077.462589	677.0
1078.025457	679.0
1078.588268	677.75
1079.151022	676.25
1079.713718	676.0
1080.276356	679.5
1080.838937	679.75
1081.401461	677.5
1081.963927	678.25
1082.526336	680.25
1083.088687	674.75
1083.650981	676.5
1084.213217	676.25
1084.775396	675.5
1085.337517	675.0
1085.899581	677.5
1086.461587	675.5
1087.023536	676.25
1087.585428	677.75
1088.147262	674.25
1088.709039	676.25
1089.270758	678.0
1089.83242	678.25
1090.394024	676.25
1090.955571	680.5
1091.517061	678.75
1092.078493	674.75
1092.639868	677.75
1093.201185	675.5
1093.762445	677.0
1094.323648	674.0
1094.884793	676.0
1095.445881	676.0
1096.006911	678.25
1096.567884	675.5
1097.1288	686.0
1097.689659	677.25
1098.25046	676.75
1098.811203	678.25
1099.37189	678.0
1099.932518	677.25
1100.49309	672.0
1101.053604	677.0
1101.614061	675.0
1102.174461	675.5
1102.734803	678.25
1103.295088	672.25
1103.855316	681.25
1104.415486	677.25
1104.975599	675.25
1105.535655	682.0
1106.095653	675.5
1106.655594	677.25
1107.215478	675.25
1107.775305	674.5
1108.335074	678.25
1108.894786	675.25
1109.45444	676.0
1110.014038	676.25
1110.573578	676.0
1111.133061	674.25
1111.692486	678.0
1112.251854	680.0
1112.811165	675.75
1113.370419	674.5
1113.929616	675.25
1114.488755	673.5
1115.047837	674.0
1115.606862	679.0
1116.16583	675.75
1116.72474	673.25
1117.283593	682.0
1117.842389	672.0
1118.401128	677.0
1118.959809	676.25
1119.518433	678.0
1120.077	674.25
1120.63551	676.25
1121.193963	673.25
1121.752358	679.0
1122.310697	678.5
1122.868978	675.25
1123.427202	678.25
1123.985368	680.5
1124.543478	676.75
1125.10153	672.75
1125.659526	674.25
1126.217464	675.0
1126.775345	679.5
1127.333168	675.5
1127.890935	677.25
1128.448644	674.75
1129.006297	674.25
1129.563892	675.75
1130.12143	672.25
1130.678911	677.0
1131.236335	675.75
1131.793701	675.0
1132.351011	673.25
1132.908263	675.5
1133.465458	674.5
1134.022597	678.25
1134.579678	677.25
1135.136702	674.75
1135.693669	675.5
1136.250578	671.5
1136.807431	676.5
1137.364227	672.75
1137.920965	676.5
1138.477647	676.75
1139.034271	675.75
1139.590839	673.0
1140.147349	674.25
1140.703802	674.25
1141.260198	673.75
1141.816537	675.75
1142.37282	674.5
1142.929045	678.25
1143.485213	675.5
1144.041323	674.0
1144.597377	676.25
1145.153374	677.0
1145.709314	676.0
1146.265197	677.25
1146.821023	678.0
1147.376792	676.0
1147.932503	680.0
1148.488158	677.75
1149.043756	680.75
1149.599297	678.25
1150.154781	683.25
1150.710207	693.75
1151.265577	692.75
1151.82089	685.25
1152.376146	677.25
1152.931345	675.0
1153.486487	675.25
1154.041572	675.75
1154.5966	678.0
1155.151571	678.25
1155.706485	676.25
1156.261342	675.5
1156.816142	677.25
1157.370885	674.25
1157.925572	675.75
1158.480201	676.75
1159.034774	673.25
1159.589289	678.5
1160.143748	676.75
1160.698149	676.25
1161.252494	678.0
1161.806782	675.5
1162.361013	676.5
1162.915187	676.0
1163.469304	673.5
1164.023364	671.75
1164.577368	673.5
1165.131314	673.75
1165.685204	669.75
1166.239036	675.0
1166.792812	675.75
1167.346531	678.25
1167.900193	674.0
1168.453798	675.75
1169.007347	675.5
1169.560838	674.25
1170.114273	675.75
1170.66765	677.0
1171.220971	677.25
1171.774235	677.25
1172.327443	671.75
1172.880593	675.75
1173.433687	676.25
1173.986723	675.5
1174.539703	675.0
1175.092626	678.0
1175.645493	675.25
1176.198302	672.25
1176.751055	675.25
1177.303751	675.25
1177.85639	674.0
1178.408972	676.5
1178.961498	676.75
1179.513966	673.25
1180.066378	672.25
1180.618733	676.0
1181.171032	674.0
1181.723273	675.75
1182.275458	674.5
1182.827586	673.0
1183.379657	672.25
1183.931672	674.75
1184.48363	676.25
1185.035531	677.25
1185.587375	677.25
1186.139162	674.75
1186.690893	678.75
1187.242567	675.5
1187.794184	675.0
1188.345745	674.75
1188.897249	675.25
1189.448696	674.5
1190.000086	675.5
1190.55142	676.0
1191.102697	677.5
1191.653918	675.75
1192.205081	677.0
1192.756188	673.0
1193.858232	670.0
1194.409169	673.5
1194.960049	674.0
1195.510872	678.5
1196.061639	673.5
1196.612349	678.0
1197.163003	670.0
1197.713599	674.5
1198.264139	671.0
1198.814623	672.75
1199.36505	673.75
1199.91542	673.0
1200.465734	672.25
1201.01599	677.0
1201.566191	676.0
1202.116334	674.0
1202.666421	673.75
1203.216452	675.75
1203.766425	671.75
1204.316343	673.75
1204.866203	675.75
1205.416007	672.0
1205.965754	675.75
1206.515445	669.75
1207.065079	674.25
1207.614657	675.25
1208.164177	672.0
1208.713642	677.0
1209.26305	670.75
1209.812401	675.25
1210.361695	675.0
1210.910933	674.25
1211.460115	677.0
1212.00924	673.5
1212.558308	672.75
1213.10732	677.0
1213.656275	678.75
1214.205174	672.25
1214.754016	670.0
1215.302801	674.25
1215.85153	675.75
1216.400203	671.0
1216.948819	673.25
1217.497378	678.5
1218.045881	674.25
1218.594327	673.0
1219.142717	675.75
1219.691051	674.75
1220.239327	676.0
1220.787548	672.75
1221.335712	674.5
1221.883819	673.0
1222.43187	672.25
1222.979864	674.25
1223.527802	673.75
1224.075683	674.0
1224.623508	673.5
1225.171277	677.75
1225.718989	673.0
1226.266644	673.75
1226.814243	673.5
1227.361786	673.0
1227.909272	673.25
1228.456702	676.5
1229.004075	674.25
1229.551392	675.25
1230.098652	671.75
1230.645856	672.25
1231.193003	676.5
1231.740094	678.0
1232.287129	671.25
1232.834107	676.75
1233.381029	679.5
1233.927894	674.25
1234.474703	675.5
1235.021455	676.5
1235.568151	672.75
1236.114791	675.5
1236.661374	676.25
1237.207901	674.25
1237.754372	672.25
1238.300786	674.0
1238.847144	673.75
1239.393445	671.5
1239.93969	674.25
1240.485879	671.75
1241.032011	673.0
1241.578087	670.75
1242.124106	674.75
1242.67007	672.0
1243.215976	674.0
1243.761827	672.25
1244.307621	674.0
1244.853359	678.0
1245.39904	671.0
1245.944665	672.25
1246.490234	670.5
1247.035746	676.0
1247.581203	671.5
1248.126602	671.75
1248.671946	673.75
1249.217233	673.75
1249.762464	670.25
1250.307638	675.5
1250.852757	675.0
1251.397819	671.0
1251.942824	671.5
1252.487774	671.0
1253.032667	670.75
1253.577503	671.0
1254.122284	671.5
1254.667008	672.25
1255.211676	673.25
1255.756288	673.5
1256.300843	673.5
1256.845342	677.0
1257.389785	671.75
1257.934172	672.75
1258.478502	672.25
1259.022776	669.25
1259.566994	674.0
1260.655261	674.5
1261.199311	672.25
1261.743304	673.0
1262.28724	672.25
1262.831121	672.75
1263.374945	670.75
1263.918713	674.25
1264.462425	673.5
1265.006081	673.5
1265.54968	679.0
1266.093223	673.5
1266.636711	675.5
1267.180141	669.75
1267.723516	672.25
1268.266835	671.5
1268.810097	670.0
1269.353303	672.25
1269.896453	675.75
1270.439547	668.75
1270.982584	671.0
1271.525566	672.25
1272.068491	673.0
1272.61136	670.0
1273.154173	671.75
1273.69693	671.5
1274.239631	676.75
1274.782275	867.5
1275.324864	1002.25
1276.952292	863.25
1277.494656	677.25
1278.036964	673.75
1278.579215	672.5
1279.121411	673.75
1279.66355	670.25
1280.205634	674.0
1280.747661	672.25
1281.289632	674.0
1281.831547	672.25
1282.373406	675.5
1282.915209	676.25
1283.456955	672.25
1283.998646	675.5
1286.706258	686.0
1287.247612	672.75
1287.788911	671.0
1288.330153	671.0
1288.871339	673.5
1289.412469	672.75
1289.953543	670.75
1290.494561	672.0
1291.035523	675.75
1291.576428	673.25
1292.117278	669.5
1292.658072	674.25
1293.19881	670.25
1293.739492	671.0
1294.280118	670.0
1294.820687	671.5
1295.361201	674.75
1295.901659	673.0
1296.442061	669.25
1296.982406	672.25
1297.522696	673.25
1298.06293	672.75
1298.603108	672.25
1299.143229	668.75
1299.683295	674.25
1300.223305	671.5
1300.763259	668.75
1301.303157	671.25
1301.842999	671.5
1302.382785	672.25
1302.922515	674.5
1303.462189	674.0
1304.001807	670.5
1304.541369	667.75
1305.080875	672.5
1305.620326	674.25
1306.15972	670.5
1306.699058	673.25
1307.238341	674.5
1307.777567	672.0
1308.316738	670.0
1308.855853	670.25
1309.394912	673.5
1309.933915	672.75
1310.472862	669.25
1311.011753	674.0
1311.550588	672.25
1312.089367	669.5
1312.62809	670.0
1313.166758	672.0
1313.70537	672.25
1314.243925	675.25
1314.782425	675.5
1315.320869	669.25
1315.859257	671.5
1316.397589	673.0
1316.935866	670.5
1317.474086	672.0
1318.012251	669.5
1318.55036	672.75
1319.088413	670.75
1319.62641	670.75
1320.164351	669.0
1320.702236	673.75
1321.240066	669.5
1321.777839	671.75
1322.315557	671.0
1322.853219	673.75
1323.390826	669.5
1323.928376	679.25
1324.465871	668.0
1325.003309	671.25
1325.540692	670.25
1326.07802	669.75
1326.615291	670.0
1327.152506	670.0
1327.689666	669.5
1328.22677	672.0
1328.763818	674.0
1329.300811	669.25
1329.837747	670.0
1330.374628	670.5
1330.911453	670.25
1331.448222	669.25
1331.984936	670.25
1332.521594	670.75
1333.058196	668.5
1333.594742	675.5
1334.131232	671.25
1334.667667	673.25
1335.204046	672.0
1335.740369	673.5
1336.276637	673.0
1336.812848	669.25
1337.349004	672.0
1337.885105	668.75
1338.421149	670.0
1338.957138	673.5
1339.493071	671.5
1340.028949	671.25
1340.56477	673.0
1341.100536	673.25
1341.636246	671.0
1342.171901	672.75
1342.7075	671.75
1343.243043	673.5
1343.77853	671.25
1344.313962	669.5
1344.849338	672.0
1345.384659	671.0
1345.919923	672.25
1346.455133	673.0
1346.990286	674.5
1347.525384	669.5
1348.060426	670.5
1348.595412	673.75
1349.130343	673.75
1349.665218	670.5
1350.200037	669.75
1350.734801	675.75
1351.269509	669.0
1351.804162	677.25
1352.338758	674.0
1352.8733	672.75
1353.407785	669.25
1353.942215	671.75
1354.476589	671.0
1355.010908	674.75
1355.545171	672.5
1356.079379	674.75
1356.61353	670.25
1357.147627	673.0
1357.681667	671.25
1358.215652	670.0
1358.749582	671.5
1359.283456	672.0
1359.817274	672.25
1360.351037	670.75
1360.884744	668.5
1361.418395	671.0
1361.951991	671.0
1362.485531	672.5
1363.019016	671.5
1363.552445	674.25
1364.085819	673.0
1364.619137	671.25
1365.1524	671.75
1365.685607	672.25
1366.218758	674.5
1366.751854	673.5
1367.284894	671.25
1367.817879	670.5
1368.350808	671.25
1368.883682	673.0
1369.4165	671.5
1369.949263	669.0
1370.48197	669.5
1371.014622	672.75
1371.547218	671.25
1372.079758	675.5
1372.612244	670.25
1373.144673	667.25
1373.677047	669.5
1374.209366	672.75
1374.741629	671.25
1375.273836	670.75
1375.805989	674.0
1376.338085	671.25
1376.870126	674.5
1377.402112	671.5
1377.934042	672.5
1378.465917	673.75
1378.997736	672.25
1379.5295	668.25
1380.061208	671.5
1380.592861	670.75
1381.124459	674.5
1381.656	670.25
1382.187487	672.75
1382.718918	673.0
1383.250294	669.75
1383.781614	673.25
1384.312879	673.25
1384.844088	672.0
1385.375242	671.0
1385.90634	671.5
1386.437383	671.75
1386.968371	673.25
1387.499303	671.25
1388.03018	678.25
1388.561001	712.0
1389.091767	781.0
1389.622478	712.75
1390.153133	676.25
1390.683733	672.5
1391.214277	673.0
1391.744766	670.25
1392.2752	672.5
1392.805578	672.75
1393.335901	672.25
1393.866168	676.0
1394.396381	670.75
1394.926537	671.5
1395.456639	673.25
1395.986685	670.5
1396.516675	671.0
1397.046611	670.5
1397.576491	673.5
1398.106315	669.25
1398.636084	671.75
1399.165798	669.25
1399.695457	668.0
1400.22506	669.5
1400.754608	671.5
1401.284101	672.0
1401.813538	671.5
1402.34292	670.25
1402.872247	671.5
1403.401518	672.5
1403.930734	672.0
1404.459895	666.5
1404.989	672.0
1405.51805	670.0
1406.047045	670.5
1406.575984	669.0
1407.104869	668.75
1407.633697	669.25
1408.162471	671.75
1408.691189	671.25
1409.219852	674.25
1409.74846	672.25
1410.277013	682.5
1410.80551	677.0
1411.333952	672.5
1411.862339	673.75
1412.39067	672.25
1412.918946	670.75
1413.447167	670.75
1413.975333	670.5
1414.503444	671.0
1415.031499	668.75
1416.087444	672.75
1416.615333	669.75
1417.143167	668.0
1417.670947	670.75
1418.19867	670.25
1418.726339	673.25
1419.253952	671.75
1419.781511	671.5
1420.309014	672.25
1420.836461	671.0
1421.363854	672.25
1421.891191	672.25
1422.418474	669.5
1422.945701	670.75
1423.472872	669.25
1423.999989	669.25
1424.52705	674.75
1425.054057	667.75
1425.581008	672.0
1426.107904	670.5
1426.634745	668.5
1427.16153	670.75
1427.688261	671.25
1428.214936	668.5
1428.741556	667.25
1429.268121	671.5
1429.794631	667.0
1430.321085	672.25
1430.847485	670.25
1431.373829	670.0
1431.900118	670.75
1432.426353	673.0
1432.952532	673.0
1433.478655	670.5
1434.004724	671.0
1434.530738	673.25
1435.056696	671.0
1435.5826	668.75
1436.108448	671.25
1436.634241	668.75
1437.159979	670.5
1437.685662	671.25
1438.21129	669.0
1438.736863	671.5
1439.262381	672.25
1439.787843	673.75
1440.313251	669.5
1440.838603	669.5
1441.3639	674.5
1441.889143	668.5
1442.41433	671.5
1442.939462	669.0
1443.464539	671.5
1443.989561	669.75
1444.514528	669.25
1445.03944	669.75
1445.564297	669.25
1446.089099	669.25
1446.613846	669.5
1447.138537	668.25
1447.663174	672.5
1448.187756	669.0
1448.712282	672.5
1449.236754	670.5
1449.761171	671.25
1450.285532	668.5
1450.809839	668.75
1451.33409	672.25
1451.858287	667.75
1452.382428	674.75
1452.906515	669.75
1453.430546	670.0
1453.954523	667.0
1454.478444	671.5
1455.002311	667.5
1455.526123	670.0
1456.049879	670.5
1456.573581	668.25
1457.097227	669.5
1457.620819	668.5
1458.144356	672.5
1458.667837	671.25
1459.191264	675.25
1459.714636	669.75
1460.237952	671.75
1460.761214	671.25
1461.284421	673.5
1461.807573	669.5
1462.33067	668.5
1462.853712	674.5
1463.376699	673.75
1463.899632	672.5
1464.422509	669.25
1464.945331	669.75
1465.468099	669.25
1465.990811	669.75
1466.513469	669.5
1467.036071	665.75
1467.558619	668.25
1468.081112	670.0
1468.60355	669.75
1469.125933	670.5
1469.648261	668.5
1470.170534	668.75
1470.692752	670.0
1471.214916	668.5
1471.737024	668.25
1472.259078	672.0
1472.781077	671.75
1473.303021	672.0
1473.82491	672.75
1474.346744	665.75
1474.868523	673.75
1475.390248	669.25
1475.911917	670.5
1476.433532	670.0
1476.955092	668.25
1477.476597	668.0
1477.998047	670.75
1478.519442	667.25
1479.040783	668.0
1479.562068	668.25
1480.083299	670.0
1480.604475	670.5
1481.125596	669.5
1481.646663	670.25
1482.167674	670.5
1482.688631	668.5
1483.209533	666.75
1483.73038	669.5
1484.251172	671.0
1484.771909	670.5
1485.292592	672.0
1485.81322	665.5
1486.333793	670.25
1486.854311	667.75
1487.374775	667.25
1487.895183	671.0
1488.415537	669.0
1488.935836	667.75
1489.456081	668.25
1489.97627	670.75
1490.496405	667.25
1491.016485	668.0
1491.536511	670.5
1492.056481	670.25
1492.576397	668.0
1493.096258	664.0
1493.616064	670.0
1494.135816	669.75
1494.655513	670.25
1495.175155	669.75
1495.694742	669.75
1496.214274	665.5
1496.733752	670.0
1497.253175	673.0
1497.772544	667.5
1498.291858	670.5
1498.811116	669.25
1499.330321	669.25
1499.84947	679.0
1500.368565	669.0
1500.887605	669.25
1501.406591	666.25
1501.925521	668.75
1502.444397	664.75
1502.963219	668.25
1503.481985	666.0
1504.000697	670.25
1504.519355	668.5
1505.037957	669.25
1505.556505	670.25
1506.074999	671.0
1506.593437	667.25
1507.111821	669.25
1507.63015	666.5
1508.148425	665.25
1508.666645	667.25
1509.18481	668.75
1509.702921	668.75
1510.220977	668.25
1511.256925	668.75
1511.774817	667.5
1512.292655	670.0
1512.810438	670.75
1513.328166	672.5
1513.84584	668.0
1514.363459	670.75
1514.881023	668.75
1515.398533	668.5
1515.915988	670.0
1516.433389	669.75
1516.950734	668.5
1517.468026	669.5
1517.985263	668.0
1518.502445	664.0
1519.019572	672.25
1519.536645	671.25
1520.053664	670.75
1520.570628	668.25
1521.087537	669.75
1521.604392	671.25
1522.121192	667.75
1522.637937	668.75
1523.154628	672.0
1523.671265	674.75
1524.187847	669.5
1524.704374	669.75
1525.220847	673.0
1525.737265	666.25
1526.253629	671.75
1526.769938	669.5
1527.286192	668.25
1527.802392	668.0
1528.318538	667.5
1528.834629	668.0
1529.350666	670.5
1529.866648	668.0
1530.382575	668.25
1530.898448	666.5
1531.414266	670.0
1531.93003	666.75
1532.44574	666.75
1532.961395	669.5
1533.476995	667.25
1533.992541	666.75
1534.508033	667.5
1535.02347	669.25
1535.538852	669.25
1536.05418	665.25
1536.569454	671.25
1537.084673	669.0
1537.599837	669.25
1538.114947	668.25
1538.630003	669.0
1539.145004	668.0
1539.659951	667.75
1540.174843	665.5
1540.689681	669.5
1541.204465	667.5
1541.719194	667.5
1542.233868	666.75
1542.748488	666.5
1543.263054	668.5
1543.777565	667.0
1544.292022	669.75
1544.806424	667.75
1545.320772	665.75
1545.835066	669.75
1546.349305	670.75
1546.863489	669.5
1547.37762	667.75
1547.891696	668.0
1548.405717	667.0
1548.919684	666.0
1549.433597	668.0
1549.947455	674.0
1550.461259	670.75
1550.975009	666.75
1551.488704	668.0
1552.002345	670.5
1552.515931	669.25
1553.029463	667.0
1553.542941	671.0
1554.056364	670.75
1554.569733	668.25
1555.083048	663.25
1555.596308	670.75
1556.109514	666.0
1556.622665	669.25
1557.135762	671.75
1557.648805	672.5
1558.161794	667.75
1558.674728	669.25
1559.187608	667.5
1559.700433	671.0
1560.213205	666.75
1560.725921	666.0
1561.238584	669.5
1561.751192	668.5
1562.263746	669.25
1562.776246	668.75
1563.288691	669.75
1563.801082	667.25
1564.313419	672.0
1564.825701	668.25
1565.337929	669.75
1565.850103	669.75
1566.362223	671.25
1566.874288	671.0
1567.386299	666.25
1567.898256	667.25
1568.410158	667.25
1568.922007	670.0
1569.4338	668.25
1569.94554	672.5
1570.457226	670.25
1570.968857	671.0
1571.480434	665.0
1571.991956	667.0
1572.503425	670.0
1573.014839	667.0
1573.526199	670.0
1574.037505	668.0
1574.548756	669.0
1575.059953	667.25
1575.571096	670.0
1576.082185	670.0
1576.59322	666.0
1577.1042	670.75
1577.615126	667.0
1578.125998	668.0
1578.636816	673.0
1579.14758	669.0
1579.658289	667.0
1580.168944	669.5
1580.679545	668.75
1581.190092	666.75
1581.700585	666.75
1582.211023	671.75
1582.721407	667.25
1583.231737	669.75
1583.742013	670.0
1584.252235	668.5
1584.762403	670.5
1585.272516	667.5
1585.782575	668.25
1586.292581	665.75
1586.802532	668.75
1587.312428	668.25
1587.822271	670.75
1588.33206	664.5
1588.841794	669.5
1589.351474	666.75
1589.8611	670.0
1590.370672	668.25
1590.88019	669.5
1591.389654	667.75
1591.899064	671.5
1592.408419	668.5
