1042.452273	722.4000244
1043.018714	717.5999756
1043.585098	715.7999878
1044.151424	715.7999878
1044.717692	718.7999878
1045.283903	717.5999756
1045.850056	716.5999756
1046.416151	719.5999756
1046.982188	716.0
1047.548167	716.2000122
1048.114089	713.2000122
1048.679953	716.4000244
1049.24576	715.7999878
1049.811509	713.5999756
1050.3772	719.7999878
1050.942833	716.5999756
1051.508408	715.7999878
1052.073926	712.5999756
1052.639387	705.7999878
1053.204789	713.4000244
1053.770134	711.5999756
1054.335421	712.0
1054.900651	715.7999878
1055.465823	712.0
1056.030937	712.4000244
1056.595993	706.0
1057.160992	713.4000244
1057.725934	709.7999878
1058.290817	705.4000244
1058.855643	714.2000122
1059.420411	708.0
1059.985122	707.4000244
1060.549775	704.2000122
1061.114371	707.7999878
1061.678908	711.0
1062.243389	709.4000244
1062.807811	705.5999756
1063.372176	701.7999878
1063.936483	708.0
1064.500733	706.0
1065.064925	705.7999878
1065.62906	706.7999878
1066.193137	712.5999756
1066.757156	704.5999756
1067.321118	710.0
1067.885022	707.0
1068.448869	709.4000244
1069.012658	707.4000244
1069.57639	703.5999756
1070.140063	709.4000244
1070.70368	704.2000122
1071.267239	704.7999878
1071.83074	708.2000122
1072.394184	705.0
1072.95757	704.0
1073.520899	703.5999756
1074.08417	701.5999756
1074.647383	700.4000244
1075.21054	700.7999878
1075.773638	701.2000122
1076.336679	702.0
1076.899663	703.4000244
1077.462589	704.7999878
1078.025457	704.4000244
1078.588268	701.4000244
1079.151022	704.5999756
1079.713718	698.4000244
1080.276356	702.2000122
1080.838937	703.5999756
1081.401461	699.7999878
1081.963927	701.0
1082.526336	702.7999878
1083.088687	702.5999756
1083.650981	704.2000122
1084.213217	697.4000244
1084.775396	700.5999756
1085.337517	698.5999756
1085.899581	703.0
1086.461587	696.4000244
1087.023536	698.2000122
1087.585428	701.0
1088.147262	700.4000244
1088.709039	703.4000244
1089.270758	700.5999756
1089.83242	697.4000244
1090.394024	695.4000244
1090.955571	694.7999878
1091.517061	698.7999878
1092.078493	698.7999878
1092.639868	698.2000122
1093.201185	700.7999878
1093.762445	693.7999878
1094.323648	696.4000244
1094.884793	694.2000122
1095.445881	697.7999878
1096.006911	697.7999878
1096.567884	697.0
1097.1288	703.0
1097.689659	697.0
1098.25046	695.5999756
1098.811203	698.5999756
1099.37189	695.7999878
1099.932518	698.2000122
1100.49309	693.7999878
1101.053604	695.5999756
1101.614061	696.4000244
1102.174461	693.0
1102.734803	693.4000244
1103.295088	696.7999878
1103.855316	690.0
1104.415486	696.2000122
1104.975599	695.5999756
1105.535655	697.5999756
1106.095653	695.0
1106.655594	695.0
1107.215478	691.7999878
1107.775305	693.5999756
1108.335074	692.0
1108.894786	692.4000244
1109.45444	692.7999878
1110.014038	693.4000244
1110.573578	694.0
1111.133061	695.4000244
1111.692486	695.2000122
1112.251854	696.2000122
1112.811165	692.7999878
1113.370419	692.7999878
1113.929616	689.4000244
1114.488755	696.0
1115.047837	697.0
1115.606862	693.7999878
1116.16583	694.2000122
1116.72474	694.0
1117.283593	695.0
1117.842389	693.0
1118.401128	692.4000244
1118.959809	694.2000122
1119.518433	692.2000122
1120.077	692.7999878
1120.63551	692.2000122
1121.193963	691.0
1121.752358	692.4000244
1122.310697	695.2000122
1122.868978	692.4000244
1123.427202	692.2000122
1123.985368	691.5999756
1124.543478	692.0
1125.10153	692.5999756
1125.659526	691.2000122
1126.217464	691.7999878
1126.775345	690.2000122
1127.333168	692.0
1127.890935	692.5999756
1128.448644	693.7999878
1129.006297	693.4000244
1129.563892	692.5999756
1130.12143	692.5999756
1130.678911	692.0
1131.236335	686.7999878
1131.793701	687.0
1132.351011	691.5999756
1132.908263	691.2000122
1133.465458	688.0
1134.022597	691.4000244
1134.579678	692.0
1135.136702	693.0
1135.693669	691.5999756
1136.250578	688.7999878
1136.807431	692.0
1137.364227	693.7999878
1137.920965	687.7999878
1138.477647	689.7999878
1139.034271	692.2000122
1139.590839	688.0
1140.147349	685.4000244
1140.703802	695.7999878
1141.260198	691.0
1141.816537	690.2000122
1142.37282	689.7999878
1142.929045	689.2000122
1143.485213	690.0
1144.041323	694.2000122
1144.597377	689.7999878
1145.153374	692.2000122
1145.709314	691.5999756
1146.265197	686.0
1146.821023	688.0
1147.376792	690.0
1147.932503	689.7999878
1148.488158	690.4000244
1149.043756	692.5999756
1149.599297	690.5999756
1150.154781	691.7999878
1150.710207	688.4000244
1151.265577	691.0
1151.82089	691.2000122
1152.376146	693.7999878
1152.931345	688.2000122
1153.486487	692.5999756
1154.041572	689.4000244
1154.5966	690.0
1155.151571	692.0
1155.706485	687.5999756
1156.261342	691.7999878
1156.816142	685.7999878
1157.370885	691.0
1157.925572	690.0
1158.480201	689.7999878
1159.034774	690.4000244
1159.589289	689.2000122
1160.143748	687.7999878
1160.698149	688.4000244
1161.252494	688.4000244
1161.806782	692.4000244
1162.361013	689.2000122
1162.915187	686.5999756
1163.469304	687.5999756
1164.023364	689.5999756
1164.577368	685.5999756
1165.131314	685.0
1165.685204	687.7999878
1166.239036	688.2000122
1166.792812	687.7999878
1167.346531	689.0
1167.900193	688.0
1168.453798	689.0
1169.007347	689.4000244
1169.560838	687.7999878
1170.114273	690.2000122
1170.66765	689.7999878
1171.220971	687.5999756
1171.774235	689.0
1172.327443	688.0
1172.880593	690.4000244
1173.433687	685.2000122
1173.986723	689.4000244
1174.539703	686.0
1175.092626	686.4000244
1175.645493	686.4000244
1176.198302	687.4000244
1176.751055	685.2000122
1177.303751	682.7999878
1177.85639	686.2000122
1178.408972	685.0
1178.961498	689.5999756
1179.513966	685.5999756
1180.066378	687.0
1180.618733	686.4000244
1181.171032	683.5999756
1181.723273	687.0
1182.275458	686.0
1182.827586	687.7999878
1183.379657	684.0
1183.931672	687.4000244
1184.48363	688.5999756
1185.035531	687.5999756
1185.587375	686.7999878
1186.139162	685.4000244
1186.690893	689.4000244
1187.242567	686.2000122
1187.794184	686.7999878
1188.345745	688.0
1188.897249	689.0
1189.448696	687.2000122
1190.000086	685.2000122
1190.55142	684.0
1191.102697	682.5999756
1191.653918	684.5999756
1192.205081	686.2000122
1192.756188	685.5999756
1193.307238	703.0
1193.858232	691.7999878
1194.409169	690.4000244
1194.960049	689.2000122
1195.510872	689.4000244
1196.061639	684.7999878
1196.612349	684.4000244
1197.163003	684.0
1197.713599	685.0
1198.264139	689.2000122
1198.814623	685.0
1199.36505	684.2000122
1199.91542	688.0
1200.465734	689.4000244
1201.01599	684.7999878
1201.566191	682.5999756
1202.116334	687.2000122
1202.666421	683.0
1203.216452	689.0
1203.766425	688.5999756
1204.316343	686.5999756
1204.866203	689.4000244
1205.416007	685.4000244
1205.965754	684.4000244
1206.515445	683.7999878
1207.065079	684.0
1207.614657	687.7999878
1208.164177	686.4000244
1208.713642	688.0
1209.26305	686.4000244
1209.812401	687.0
1210.361695	686.5999756
1210.910933	683.7999878
1211.460115	686.2000122
1212.00924	688.2000122
1212.558308	682.4000244
1213.10732	686.2000122
1213.656275	686.7999878
1214.205174	683.7999878
1214.754016	684.2000122
1215.302801	681.4000244
1215.85153	687.5999756
1216.400203	688.4000244
1216.948819	685.0
1217.497378	685.7999878
1218.045881	684.7999878
1218.594327	686.4000244
1219.142717	685.7999878
1219.691051	685.4000244
1220.239327	685.4000244
1220.787548	683.2000122
1221.335712	683.0
1221.883819	685.7999878
1222.43187	682.4000244
1222.979864	686.7999878
1223.527802	681.5999756
1224.075683	686.0
1224.623508	688.5999756
1225.171277	683.2000122
1225.718989	686.5999756
1226.266644	684.2000122
1226.814243	687.4000244
1227.361786	686.5999756
1227.909272	685.4000244
1228.456702	686.5999756
1229.004075	683.7999878
1229.551392	684.2000122
1230.098652	684.0
1230.645856	687.7999878
1231.193003	682.0
1231.740094	684.5999756
1232.287129	682.5999756
1232.834107	684.5999756
1233.381029	683.2000122
1233.927894	689.0
1234.474703	686.4000244
1235.021455	683.7999878
1235.568151	683.2000122
1236.114791	681.4000244
1236.661374	683.2000122
1237.207901	683.5999756
1237.754372	681.5999756
1238.300786	686.4000244
1238.847144	684.7999878
1239.393445	685.2000122
1239.93969	686.4000244
1240.485879	683.7999878
1241.032011	684.0
1241.578087	685.7999878
1242.124106	682.2000122
1242.67007	684.7999878
1243.215976	686.4000244
1243.761827	686.5999756
1244.307621	685.0
1244.853359	686.7999878
1245.39904	681.7999878
1245.944665	685.5999756
1246.490234	684.4000244
1247.035746	684.0
1247.581203	684.0
1248.126602	683.7999878
1248.671946	687.7999878
1249.217233	685.4000244
1249.762464	684.5999756
1250.307638	685.0
1250.852757	685.5999756
1251.397819	684.5999756
1251.942824	684.2000122
1252.487774	684.7999878
1253.032667	678.7999878
1253.577503	680.7999878
1254.122284	684.0
1254.667008	683.5999756
1255.211676	686.4000244
1255.756288	686.0
1256.300843	681.0
1256.845342	683.4000244
1257.389785	682.2000122
1257.934172	681.2000122
1258.478502	683.2000122
1259.022776	684.2000122
1259.566994	684.7999878
1260.111156	692.2000122
1260.655261	683.2000122
1261.199311	682.7999878
1261.743304	681.4000244
1262.28724	685.4000244
1262.831121	682.0
1263.374945	682.4000244
1263.918713	686.4000244
1264.462425	683.2000122
1265.006081	683.4000244
1265.54968	688.7999878
1266.093223	687.2000122
1266.636711	685.2000122
1267.180141	680.4000244
1267.723516	680.5999756
1268.266835	687.4000244
1268.810097	682.7999878
1269.353303	681.4000244
1269.896453	681.5999756
1270.439547	683.0
1270.982584	684.5999756
1271.525566	681.5999756
1272.068491	686.0
1272.61136	688.0
1273.154173	685.2000122
1273.69693	684.5999756
1274.239631	683.0
1274.782275	686.4000244
1275.324864	683.7999878
1275.867396	679.5999756
1276.409872	685.0
1276.952292	686.7999878
1277.494656	680.7999878
1278.036964	681.0
1278.579215	681.4000244
1279.121411	680.5999756
1279.66355	684.0
1280.205634	682.5999756
1280.747661	681.7999878
1281.289632	681.2000122
1281.831547	684.7999878
1282.373406	685.4000244
1282.915209	684.2000122
1283.456955	684.4000244
1283.998646	685.4000244
1284.540281	685.0
1285.081859	687.7999878
1285.623381	709.5999756
1286.164848	777.0
1286.706258	728.7999878
1287.247612	688.0
1287.788911	685.2000122
1288.330153	685.7999878
1288.871339	682.7999878
1289.412469	680.5999756
1289.953543	686.5999756
1290.494561	683.0
1291.035523	684.2000122
1291.576428	685.4000244
1292.117278	679.7999878
1292.658072	681.4000244
1293.19881	683.5999756
1293.739492	679.7999878
1294.280118	681.5999756
1294.820687	686.4000244
1295.361201	686.2000122
1295.901659	683.7999878
1296.442061	682.0
1296.982406	682.2000122
1297.522696	684.0
1298.06293	682.7999878
1298.603108	681.7999878
1299.143229	683.4000244
1299.683295	684.5999756
1300.223305	682.0
1300.763259	686.2000122
1301.303157	683.0
1301.842999	684.7999878
1302.382785	683.7999878
1302.922515	683.5999756
1303.462189	683.2000122
1304.001807	684.2000122
1304.541369	683.7999878
1305.080875	682.2000122
1305.620326	683.4000244
1306.15972	683.5999756
1306.699058	682.5999756
1307.238341	683.5999756
1307.777567	684.7999878
1308.316738	684.5999756
1308.855853	685.5999756
1309.394912	684.4000244
1309.933915	684.0
1310.472862	684.0
1311.011753	683.5999756
1311.550588	683.4000244
1312.089367	684.4000244
1312.62809	686.7999878
1313.166758	681.7999878
1313.70537	680.4000244
1314.243925	683.0
1314.782425	680.0
1315.320869	682.5999756
1315.859257	680.7999878
1316.397589	683.0
1316.935866	684.7999878
1317.474086	683.0
1318.012251	684.5999756
1318.55036	682.7999878
1319.088413	683.4000244
1319.62641	682.2000122
1320.164351	682.2000122
1320.702236	688.2000122
1322.315557	683.0
1322.853219	680.5999756
1323.390826	682.7999878
1323.928376	689.2000122
1324.465871	685.5999756
1325.003309	684.0
1325.540692	681.5999756
1326.07802	679.5999756
1326.615291	682.0
1327.152506	684.2000122
1327.689666	681.5999756
1328.22677	685.2000122
1328.763818	684.5999756
1329.300811	684.0
1329.837747	681.4000244
1330.374628	679.5999756
1330.911453	682.5999756
1331.448222	684.0
1331.984936	684.4000244
1332.521594	683.7999878
1333.058196	682.2000122
1333.594742	685.0
1334.131232	682.2000122
1334.667667	683.2000122
1335.204046	680.0
1335.740369	684.0
1336.276637	680.5999756
1336.812848	685.0
1337.349004	683.5999756
1337.885105	685.4000244
1338.421149	681.2000122
1338.957138	683.4000244
1339.493071	684.7999878
1340.028949	684.2000122
1340.56477	686.7999878
1341.100536	684.2000122
1341.636246	681.7999878
1342.171901	680.7999878
1342.7075	685.4000244
1343.243043	682.7999878
1343.77853	682.0
1344.313962	681.4000244
1344.849338	680.7999878
1345.384659	684.2000122
1345.919923	683.2000122
1346.455133	677.4000244
1346.990286	684.2000122
1347.525384	685.2000122
1348.060426	684.5999756
1348.595412	682.5999756
1349.130343	681.0
1349.665218	682.0
1350.200037	682.4000244
1350.734801	681.7999878
1351.269509	683.0
1351.804162	684.0
1352.338758	682.5999756
1352.8733	683.4000244
1353.407785	684.2000122
1353.942215	683.2000122
1354.476589	681.5999756
1355.010908	683.0
1355.545171	678.2000122
1356.079379	679.4000244
1356.61353	680.0
1357.147627	683.5999756
1357.681667	681.2000122
1358.215652	683.2000122
1358.749582	683.4000244
1359.283456	681.0
1359.817274	683.2000122
1360.351037	686.4000244
1360.884744	685.2000122
1361.418395	681.7999878
1361.951991	684.4000244
1362.485531	681.5999756
1363.019016	682.0
1363.552445	681.7999878
1364.085819	682.4000244
1364.619137	679.5999756
1365.1524	686.5999756
1365.685607	681.0
1366.218758	685.2000122
1366.751854	683.7999878
1367.284894	682.5999756
1367.817879	683.7999878
1368.350808	683.4000244
1368.883682	684.5999756
1369.4165	681.0
1369.949263	683.2000122
1370.48197	685.5999756
1371.014622	684.2000122
1371.547218	680.7999878
1372.079758	683.2000122
1372.612244	684.5999756
1373.144673	685.4000244
1373.677047	679.0
1374.209366	685.0
1374.741629	682.0
1375.273836	684.0
1375.805989	683.4000244
1376.338085	680.2000122
1376.870126	681.5999756
1377.402112	681.0
1377.934042	685.4000244
1378.465917	682.2000122
1378.997736	682.5999756
1379.5295	684.4000244
1380.061208	683.5999756
1380.592861	684.2000122
1381.124459	681.7999878
1381.656	679.5999756
1382.187487	685.5999756
1382.718918	682.5999756
1383.250294	681.0
1383.781614	682.0
1384.312879	682.2000122
1384.844088	685.5999756
1385.375242	681.4000244
1385.90634	678.7999878
1386.437383	683.0
1386.968371	685.7999878
1387.499303	686.2000122
1388.03018	685.5999756
1388.561001	704.2000122
1389.091767	814.5999756
1389.622478	776.5999756
1390.153133	698.0
1390.683733	691.0
1391.214277	680.4000244
1391.744766	681.0
1392.2752	684.0
1392.805578	682.2000122
1393.335901	683.4000244
1393.866168	683.7999878
1394.396381	684.2000122
1394.926537	682.0
1395.456639	681.2000122
1395.986685	682.2000122
1396.516675	679.0
1397.046611	680.7999878
1397.576491	681.0
1398.106315	681.0
1398.636084	683.0
1399.165798	681.7999878
1399.695457	685.5999756
1400.22506	685.2000122
1400.754608	683.5999756
1401.284101	686.0
1401.813538	681.5999756
1402.34292	683.5999756
1402.872247	683.5999756
1403.401518	685.0
1403.930734	681.7999878
1404.459895	680.7999878
1404.989	678.0
1405.51805	682.5999756
1406.047045	683.5999756
1406.575984	680.4000244
1407.104869	681.2000122
1407.633697	679.7999878
1408.162471	683.5999756
1408.691189	682.7999878
1409.219852	684.7999878
1409.74846	688.0
1410.277013	689.2000122
1410.80551	694.4000244
1411.333952	685.4000244
1411.862339	681.5999756
1412.39067	683.0
1412.918946	682.2000122
1413.447167	685.4000244
1413.975333	680.0
1414.503444	684.5999756
1415.031499	683.4000244
1415.559499	692.7999878
1416.087444	682.7999878
1416.615333	686.2000122
1417.143167	685.4000244
1417.670947	682.4000244
1418.19867	682.7999878
1418.726339	685.2000122
1419.253952	680.5999756
1419.781511	682.2000122
1420.309014	682.5999756
1420.836461	681.7999878
1421.363854	684.7999878
1421.891191	680.2000122
1422.418474	684.4000244
1422.945701	684.2000122
1423.472872	681.7999878
1423.999989	682.0
1424.52705	683.4000244
1425.054057	683.0
1425.581008	683.0
1426.107904	684.0
1426.634745	684.4000244
1427.16153	683.0
1427.688261	684.0
1428.214936	680.2000122
1428.741556	680.5999756
1429.268121	681.7999878
1429.794631	683.7999878
1430.321085	683.5999756
1430.847485	681.4000244
1431.373829	684.4000244
1431.900118	683.2000122
1432.426353	681.4000244
1432.952532	679.0
1433.478655	678.7999878
1434.004724	684.2000122
1434.530738	680.2000122
1435.056696	683.0
1435.5826	683.7999878
1436.108448	683.7999878
1436.634241	682.2000122
1437.159979	682.4000244
1437.685662	685.5999756
1438.21129	680.7999878
1438.736863	686.2000122
1439.262381	683.0
1439.787843	681.2000122
1440.313251	682.5999756
1440.838603	684.5999756
1441.3639	683.0
1441.889143	682.0
1442.41433	685.4000244
1442.939462	683.2000122
1443.464539	682.5999756
1443.989561	683.7999878
1444.514528	683.2000122
1445.03944	682.0
1445.564297	681.5999756
1446.089099	681.2000122
1446.613846	681.4000244
1447.138537	682.5999756
1447.663174	680.7999878
1448.187756	681.4000244
1448.712282	681.0
1449.236754	683.2000122
1449.761171	679.0
1450.285532	682.7999878
1450.809839	682.0
1451.33409	680.7999878
1451.858287	684.4000244
1452.382428	681.2000122
1452.906515	683.2000122
1453.430546	679.5999756
1453.954523	679.2000122
1454.478444	681.5999756
1455.002311	679.2000122
1455.526123	684.0
1456.049879	682.5999756
1456.573581	682.5999756
1457.097227	685.2000122
1457.620819	681.5999756
1458.144356	681.5999756
1458.667837	682.5999756
1459.191264	682.7999878
1459.714636	679.4000244
1460.237952	682.7999878
1460.761214	679.5999756
1461.284421	682.0
1461.807573	687.4000244
1462.33067	681.2000122
1462.853712	684.0
1463.376699	684.0
1463.899632	681.7999878
1464.422509	678.7999878
1464.945331	684.5999756
1465.468099	681.5999756
1465.990811	682.0
1466.513469	680.7999878
1467.036071	683.0
1467.558619	678.7999878
1468.081112	680.7999878
1468.60355	684.0
1469.125933	683.2000122
1469.648261	677.4000244
1470.170534	683.0
1470.692752	680.2000122
1471.214916	682.0
1471.737024	682.0
1472.259078	681.5999756
1472.781077	681.5999756
1473.303021	679.5999756
1473.82491	680.4000244
1474.346744	682.7999878
1474.868523	680.5999756
1475.390248	686.7999878
1475.911917	683.0
1476.433532	683.0
1476.955092	683.5999756
1477.476597	682.4000244
1477.998047	681.7999878
1478.519442	680.7999878
1479.040783	681.7999878
1479.562068	683.2000122
1480.083299	681.0
1480.604475	681.5999756
1481.125596	680.4000244
1481.646663	684.5999756
1482.167674	681.7999878
1482.688631	679.5999756
1483.209533	683.5999756
1483.73038	679.4000244
1484.251172	679.7999878
1484.771909	678.2000122
1485.292592	678.0
1485.81322	679.4000244
1486.333793	684.0
1486.854311	679.5999756
1487.374775	680.7999878
1487.895183	681.5999756
1488.415537	680.4000244
1488.935836	679.0
1489.456081	682.2000122
1489.97627	678.2000122
1490.496405	683.0
1491.016485	680.0
1491.536511	684.0
1492.056481	682.2000122
1492.576397	683.2000122
1493.096258	680.4000244
1493.616064	682.5999756
1494.135816	679.0
1494.655513	680.5999756
1495.175155	683.5999756
1495.694742	683.2000122
1496.214274	681.2000122
1496.733752	683.2000122
1497.253175	681.2000122
1497.772544	681.0
1498.291858	682.2000122
1498.811116	685.5999756
1499.330321	680.2000122
1499.84947	687.5999756
1500.368565	680.0
1500.887605	680.4000244
1501.406591	680.7999878
1501.925521	678.2000122
1502.444397	682.4000244
1502.963219	682.7999878
1503.481985	681.0
1504.000697	682.4000244
1504.519355	682.5999756
1505.037957	679.2000122
1505.556505	681.2000122
1506.074999	679.2000122
1506.593437	680.7999878
1507.111821	684.0
1507.63015	681.5999756
1508.148425	678.2000122
1508.666645	681.0
1509.18481	681.2000122
1509.702921	682.2000122
1510.220977	679.0
1510.738979	687.0
1511.256925	680.2000122
1511.774817	680.0
1512.292655	683.7999878
1512.810438	685.0
1513.328166	682.7999878
1513.84584	683.2000122
1514.363459	680.4000244
1514.881023	683.4000244
1515.398533	677.5999756
1515.915988	682.7999878
1516.433389	687.2000122
1516.950734	680.2000122
1517.468026	680.0
1517.985263	679.4000244
1518.502445	683.5999756
1519.019572	680.2000122
1519.536645	682.0
1520.053664	680.2000122
1520.570628	681.5999756
1521.087537	682.2000122
1521.604392	679.7999878
1522.121192	682.0
1522.637937	679.4000244
1523.154628	680.2000122
1523.671265	677.2000122
1524.187847	682.7999878
1524.704374	678.0
1525.220847	679.5999756
1525.737265	686.4000244
1526.253629	682.4000244
1526.769938	684.7999878
1527.286192	682.4000244
1527.802392	681.2000122
1528.318538	683.7999878
1528.834629	681.2000122
1529.350666	683.0
1529.866648	685.2000122
1530.382575	683.2000122
1530.898448	681.5999756
1531.414266	680.7999878
1531.93003	679.5999756
1532.44574	679.4000244
1532.961395	680.7999878
1533.476995	678.7999878
1533.992541	684.7999878
1534.508033	680.0
1535.02347	683.7999878
1535.538852	680.5999756
1536.05418	681.4000244
1536.569454	683.4000244
1537.084673	679.2000122
1537.599837	683.4000244
1538.114947	681.0
1538.630003	680.4000244
1539.145004	679.7999878
1539.659951	683.7999878
1540.174843	683.5999756
1540.689681	681.4000244
1541.204465	681.5999756
1541.719194	682.2000122
1542.233868	679.0
1542.748488	677.4000244
1543.263054	682.5999756
1543.777565	681.4000244
1544.292022	679.0
1544.806424	680.4000244
1545.320772	680.4000244
1545.835066	682.2000122
1546.349305	679.5999756
1546.863489	678.5999756
1547.37762	679.5999756
1547.891696	685.0
1548.405717	680.7999878
1548.919684	680.7999878
1549.433597	679.5999756
1549.947455	682.0
1550.461259	682.5999756
1550.975009	678.5999756
1551.488704	685.2000122
1552.002345	683.7999878
1552.515931	680.7999878
1553.029463	680.7999878
1553.542941	685.2000122
1554.056364	682.5999756
1554.569733	680.0
1555.083048	682.0
1555.596308	680.0
1556.109514	681.4000244
1556.622665	680.2000122
1557.135762	680.0
1557.648805	683.2000122
1558.161794	681.4000244
1558.674728	681.7999878
1559.187608	678.4000244
1559.700433	680.0
1560.213205	680.2000122
1560.725921	684.0
1561.238584	683.2000122
1561.751192	681.0
1562.263746	682.5999756
1562.776246	683.5999756
1563.288691	684.0
1563.801082	681.5999756
1564.313419	679.7999878
1564.825701	679.2000122
1565.337929	675.7999878
1565.850103	682.5999756
1566.362223	682.2000122
1566.874288	682.5999756
1567.386299	681.7999878
1567.898256	682.0
1568.410158	680.5999756
1568.922007	681.0
1569.4338	683.5999756
1569.94554	683.2000122
1570.457226	680.5999756
1570.968857	678.5999756
1571.480434	678.5999756
1571.991956	682.2000122
1572.503425	683.2000122
1573.014839	678.4000244
1573.526199	682.4000244
1574.037505	681.0
1574.548756	679.2000122
1575.059953	681.7999878
1575.571096	680.4000244
1576.082185	683.0
1576.59322	681.0
1577.1042	684.4000244
1577.615126	681.0
1578.125998	680.0
1578.636816	680.5999756
1579.14758	680.4000244
1579.658289	680.4000244
1580.168944	678.7999878
1580.679545	680.0
1581.190092	681.0
1581.700585	677.7999878
1582.211023	681.0
1582.721407	685.7999878
1583.231737	679.7999878
1583.742013	677.2000122
1584.252235	682.0
1584.762403	680.7999878
1585.272516	680.5999756
1585.782575	681.5999756
1586.292581	681.4000244
1586.802532	679.5999756
1587.312428	683.2000122
1587.822271	678.4000244
1588.33206	680.7999878
1588.841794	680.0
1589.351474	681.5999756
1589.8611	680.4000244
1590.370672	680.7999878
1590.88019	679.2000122
1591.389654	688.7999878
