1042.452273	695.4000244
1043.018714	696.0
1043.585098	692.4000244
1044.151424	691.2000122
1044.717692	691.7999878
1045.283903	688.7999878
1045.850056	691.0
1046.416151	690.0
1046.982188	691.5999756
1047.548167	688.2000122
1048.114089	688.4000244
1048.679953	687.0
1049.24576	688.0
1049.811509	687.5999756
1050.3772	687.7999878
1050.942833	687.7999878
1051.508408	684.5999756
1052.073926	688.0
1052.639387	687.2000122
1053.204789	687.0
1053.770134	685.4000244
1054.335421	684.5999756
1054.900651	690.5999756
1055.465823	683.2000122
1056.030937	687.2000122
1056.595993	687.4000244
1057.160992	687.4000244
1057.725934	681.0
1058.290817	683.5999756
1058.855643	683.4000244
1059.420411	682.2000122
1059.985122	683.4000244
1060.549775	686.0
1061.114371	682.7999878
1061.678908	681.2000122
1062.243389	683.5999756
1062.807811	684.0
1063.372176	681.4000244
1063.936483	680.5999756
1064.500733	681.2000122
1065.064925	681.7999878
1065.62906	683.0
1066.193137	683.7999878
1066.757156	679.2000122
1067.321118	684.2000122
1067.885022	681.2000122
1068.448869	676.2000122
1069.012658	681.4000244
1069.57639	682.0
1070.140063	684.5999756
1070.70368	680.4000244
1071.267239	681.7999878
1071.83074	680.7999878
1072.394184	684.0
1072.95757	678.2000122
1073.520899	682.2000122
1074.08417	684.4000244
1074.647383	680.2000122
1075.21054	682.0
1075.773638	682.5999756
1076.336679	680.0
1076.899663	681.5999756
1077.462589	681.4000244
1078.025457	678.4000244
1078.588268	681.5999756
1079.151022	678.7999878
1079.713718	679.4000244
1080.276356	679.4000244
1080.838937	683.5999756
1081.401461	680.5999756
1081.963927	679.7999878
1082.526336	677.7999878
1083.088687	682.0
1083.650981	681.0
1084.213217	680.5999756
1084.775396	682.7999878
1085.337517	680.4000244
1085.899581	681.5999756
1086.461587	682.4000244
1087.023536	679.7999878
1087.585428	678.7999878
1088.147262	679.0
1088.709039	683.4000244
1089.270758	682.7999878
1089.83242	680.4000244
1090.394024	678.4000244
1090.955571	680.4000244
1091.517061	679.7999878
1092.078493	682.0
1092.639868	681.5999756
1093.201185	682.0
1093.762445	680.5999756
1094.323648	680.5999756
1094.884793	678.5999756
1095.445881	679.7999878
1096.006911	677.2000122
1096.567884	681.5999756
1097.1288	684.4000244
1097.689659	680.7999878
1098.25046	682.7999878
1098.811203	681.2000122
1099.37189	676.0
1099.932518	679.7999878
1100.49309	675.7999878
1101.053604	681.7999878
1101.614061	678.5999756
1102.174461	677.5999756
1102.734803	680.5999756
1103.295088	677.5999756
1103.855316	677.4000244
1104.415486	679.5999756
1104.975599	682.5999756
1105.535655	679.7999878
1106.095653	678.0
1106.655594	676.4000244
1107.215478	683.7999878
1107.775305	680.0
1108.335074	682.4000244
1108.894786	680.0
1109.45444	678.2000122
1110.014038	679.7999878
1110.573578	679.5999756
1111.133061	685.4000244
1111.692486	679.5999756
1112.251854	679.0
1112.811165	681.4000244
1113.370419	679.4000244
1113.929616	683.4000244
1114.488755	683.5999756
1115.047837	677.0
1115.606862	678.2000122
1116.16583	683.4000244
1116.72474	682.7999878
1117.283593	686.4000244
1117.842389	680.7999878
1118.401128	680.0
1118.959809	680.0
1119.518433	677.5999756
1120.077	680.2000122
1120.63551	680.5999756
1121.193963	678.0
1121.752358	680.0
1122.310697	678.0
1122.868978	677.0
1123.427202	678.2000122
1123.985368	678.5999756
1124.543478	682.2000122
1125.10153	679.7999878
1125.659526	679.5999756
1126.217464	678.7999878
1126.775345	677.5999756
1127.333168	678.4000244
1127.890935	679.2000122
1128.448644	682.4000244
1129.006297	680.4000244
1129.563892	676.5999756
1130.12143	683.7999878
1130.678911	681.0
1131.236335	680.0
1131.793701	679.2000122
1132.351011	680.4000244
1132.908263	680.7999878
1133.465458	681.5999756
1134.022597	682.5999756
1134.579678	680.0
1135.136702	678.7999878
1135.693669	678.0
1136.250578	685.2000122
1136.807431	679.0
1137.364227	679.7999878
1137.920965	681.4000244
1138.477647	680.0
1139.034271	679.2000122
1139.590839	680.4000244
1140.147349	676.4000244
1140.703802	679.5999756
1141.260198	678.4000244
1141.816537	679.2000122
1142.37282	681.0
1142.929045	681.4000244
1143.485213	680.7999878
1144.041323	683.0
1144.597377	679.5999756
1145.153374	680.4000244
1145.709314	684.4000244
1146.265197	677.7999878
1146.821023	680.2000122
1147.376792	680.0
1147.932503	678.7999878
1148.488158	682.2000122
1149.043756	684.2000122
1149.599297	681.7999878
1150.154781	681.0
1150.710207	680.5999756
1151.265577	679.4000244
1151.82089	684.0
1152.376146	680.5999756
1152.931345	678.2000122
1153.486487	680.0
1154.041572	678.5999756
1154.5966	678.4000244
1155.151571	682.4000244
1155.706485	681.7999878
1156.261342	681.5999756
1156.816142	678.7999878
1157.370885	682.7999878
1157.925572	681.0
1158.480201	682.2000122
1159.034774	682.5999756
1159.589289	680.0
1160.143748	680.4000244
1160.698149	679.4000244
1161.252494	679.2000122
1161.806782	683.0
1162.361013	678.2000122
1162.915187	681.4000244
1163.469304	677.0
1164.023364	680.7999878
1164.577368	676.4000244
1165.131314	681.0
1165.685204	681.0
1166.239036	682.4000244
1166.792812	678.4000244
1167.346531	679.5999756
1167.900193	678.5999756
1168.453798	682.5999756
1169.007347	676.2000122
1169.560838	682.4000244
1170.114273	678.5999756
1170.66765	679.4000244
1171.220971	679.2000122
1171.774235	679.7999878
1172.327443	679.0
1172.880593	678.7999878
1173.433687	684.2000122
1173.986723	682.4000244
1174.539703	681.2000122
1175.092626	679.2000122
1175.645493	680.2000122
1176.198302	679.5999756
1176.751055	679.2000122
1177.303751	676.2000122
1177.85639	679.0
1178.408972	680.5999756
1178.961498	675.4000244
1179.513966	677.5999756
1180.066378	679.4000244
1180.618733	676.5999756
1181.171032	680.2000122
1181.723273	680.7999878
1182.275458	684.0
1182.827586	682.2000122
1183.379657	677.0
1183.931672	677.2000122
1184.48363	682.4000244
1185.035531	681.4000244
1185.587375	679.7999878
1186.139162	680.4000244
1186.690893	677.5999756
1187.242567	678.7999878
1187.794184	682.5999756
1188.345745	680.5999756
1188.897249	682.0
1189.448696	678.0
1190.000086	681.2000122
1190.55142	678.7999878
1191.102697	680.2000122
1191.653918	681.2000122
1192.205081	680.0
1192.756188	681.7999878
1193.858232	678.5999756
1194.409169	681.0
1194.960049	680.4000244
1195.510872	682.0
1196.061639	678.4000244
1196.612349	683.5999756
1197.163003	683.0
1197.713599	680.0
1198.264139	685.0
1198.814623	679.7999878
1199.36505	681.0
1199.91542	680.2000122
1200.465734	680.7999878
1201.01599	679.2000122
1201.566191	682.7999878
1202.116334	678.4000244
1202.666421	680.2000122
1203.216452	680.5999756
1203.766425	680.5999756
1204.316343	683.2000122
1204.866203	681.5999756
1205.416007	678.0
1205.965754	679.5999756
1206.515445	676.7999878
1207.065079	683.7999878
1207.614657	681.5999756
1208.164177	681.5999756
1208.713642	680.7999878
1209.26305	678.7999878
1209.812401	679.0
1210.361695	686.5999756
1210.910933	681.0
1211.460115	683.4000244
1212.00924	680.7999878
1212.558308	680.7999878
1213.10732	681.7999878
1213.656275	681.4000244
1214.205174	678.0
1214.754016	682.0
1215.302801	685.4000244
1215.85153	680.4000244
1216.400203	680.2000122
1216.948819	677.0
1217.497378	678.5999756
1218.045881	678.2000122
1218.594327	681.0
1219.142717	678.2000122
1219.691051	680.5999756
1220.239327	682.2000122
1220.787548	682.4000244
1221.335712	679.0
1221.883819	681.4000244
1222.43187	681.7999878
1222.979864	681.5999756
1223.527802	682.2000122
1224.075683	681.4000244
1224.623508	683.2000122
1225.171277	681.2000122
1225.718989	681.0
1226.266644	677.7999878
1226.814243	684.7999878
1227.361786	681.2000122
1227.909272	678.7999878
1228.456702	680.4000244
1229.004075	680.4000244
1229.551392	680.5999756
1230.098652	680.0
1230.645856	681.2000122
1231.193003	682.7999878
1231.740094	683.0
1232.287129	679.0
1232.834107	678.7999878
1233.381029	683.2000122
1233.927894	680.0
1234.474703	679.7999878
1235.021455	680.0
1235.568151	680.0
1236.114791	679.2000122
1236.661374	680.0
1237.207901	684.4000244
1237.754372	678.0
1238.300786	679.4000244
1238.847144	678.5999756
1239.393445	681.4000244
1239.93969	678.0
1240.485879	681.0
1241.032011	681.4000244
1241.578087	681.4000244
1242.124106	677.5999756
1242.67007	680.0
1243.215976	681.2000122
1243.761827	680.0
1244.307621	681.2000122
1244.853359	681.2000122
1245.39904	679.0
1245.944665	676.5999756
1246.490234	681.0
1247.035746	680.7999878
1247.581203	679.2000122
1248.126602	679.5999756
1248.671946	680.0
1249.217233	676.2000122
1249.762464	678.7999878
1250.307638	681.7999878
1250.852757	680.2000122
1251.397819	677.4000244
1251.942824	680.0
1252.487774	680.2000122
1253.032667	678.5999756
1253.577503	678.2000122
1254.122284	681.2000122
1254.667008	678.0
1255.211676	677.2000122
1255.756288	677.7999878
1256.300843	680.7999878
1256.845342	679.7999878
1257.389785	677.0
1257.934172	675.0
1258.478502	677.2000122
1259.022776	674.0
1259.566994	677.4000244
1260.111156	689.0
1260.655261	682.7999878
1261.199311	676.4000244
1261.743304	676.5999756
1262.28724	677.4000244
1262.831121	677.7999878
1263.374945	679.4000244
1263.918713	681.2000122
1264.462425	683.2000122
1265.006081	688.7999878
1265.54968	683.0
1266.093223	683.4000244
1266.636711	681.4000244
1267.180141	681.0
1267.723516	677.0
1268.266835	678.7999878
1268.810097	677.5999756
1269.353303	681.7999878
1269.896453	678.4000244
1270.439547	674.5999756
1270.982584	676.5999756
1271.525566	676.5999756
1272.068491	676.5999756
1272.61136	677.0
1273.154173	678.7999878
1273.69693	679.5999756
1274.239631	679.5999756
1274.782275	677.7999878
1275.324864	676.5999756
1275.867396	675.7999878
1276.409872	676.2000122
1276.952292	676.0
1277.494656	676.2000122
1278.036964	676.5999756
1278.579215	674.7999878
1279.121411	677.5999756
1279.66355	679.4000244
1280.205634	676.5999756
1280.747661	678.5999756
1281.289632	677.7999878
1281.831547	679.5999756
1282.373406	677.4000244
1282.915209	679.4000244
1283.456955	684.0
1283.998646	687.5999756
1284.540281	707.2000122
1285.081859	772.7999878
1285.623381	815.4000244
1286.164848	740.5999756
1286.706258	693.7999878
1287.247612	684.0
1287.788911	677.0
1288.330153	678.7999878
1288.871339	677.2000122
1289.412469	679.4000244
1289.953543	676.5999756
1290.494561	678.0
1291.035523	677.5999756
1291.576428	675.4000244
1292.117278	676.5999756
1292.658072	677.5999756
1293.19881	679.7999878
1293.739492	673.7999878
1294.280118	677.4000244
1294.820687	680.2000122
1295.361201	674.7999878
1295.901659	679.0
1296.442061	675.4000244
1296.982406	677.2000122
1297.522696	679.5999756
1298.06293	676.7999878
1298.603108	674.7999878
1299.143229	676.2000122
1299.683295	676.2000122
1300.223305	677.7999878
1300.763259	676.2000122
1301.303157	676.7999878
1301.842999	674.7999878
1302.382785	677.2000122
1302.922515	678.4000244
1303.462189	674.2000122
1304.001807	675.2000122
1304.541369	676.5999756
1305.080875	676.7999878
1305.620326	678.0
1306.15972	676.2000122
1306.699058	676.2000122
1307.238341	674.7999878
1307.777567	677.2000122
1308.316738	673.0
1308.855853	675.7999878
1309.394912	676.4000244
1309.933915	674.0
1310.472862	674.7999878
1311.011753	674.4000244
1311.550588	674.5999756
1312.089367	673.0
1312.62809	676.0
1313.166758	677.7999878
1313.70537	675.7999878
1314.243925	674.4000244
1314.782425	674.2000122
1315.320869	675.5999756
1315.859257	676.2000122
1316.397589	672.7999878
1316.935866	675.0
1317.474086	676.4000244
1318.012251	674.5999756
1318.55036	677.4000244
1319.088413	674.4000244
1319.62641	675.0
1320.164351	673.7999878
1320.702236	675.2000122
1321.240066	674.5999756
1321.777839	675.2000122
1322.315557	676.5999756
1322.853219	676.0
1323.390826	675.4000244
1323.928376	681.7999878
1324.465871	675.5999756
1325.003309	674.5999756
1325.540692	675.7999878
1326.07802	674.5999756
1326.615291	676.0
1327.152506	677.4000244
1327.689666	674.5999756
1328.22677	674.0
1328.763818	674.4000244
1329.300811	672.5999756
1329.837747	674.7999878
1330.374628	674.7999878
1330.911453	675.2000122
1331.448222	671.5999756
1331.984936	677.5999756
1332.521594	678.2000122
1333.058196	678.4000244
1333.594742	677.2000122
1334.131232	675.7999878
1334.667667	677.2000122
1335.204046	673.4000244
1335.740369	674.2000122
1336.276637	673.4000244
1336.812848	673.5999756
1337.349004	674.4000244
1337.885105	677.5999756
1338.421149	674.2000122
1338.957138	674.4000244
1339.493071	679.5999756
1340.028949	673.0
1340.56477	673.5999756
1341.100536	674.7999878
1341.636246	678.4000244
1342.171901	674.2000122
1342.7075	673.0
1343.243043	670.5999756
1343.77853	673.7999878
1344.313962	678.0
1344.849338	675.2000122
1345.384659	674.2000122
1345.919923	674.0
1346.455133	676.2000122
1346.990286	673.4000244
1347.525384	673.7999878
1348.060426	677.5999756
1348.595412	674.5999756
1349.130343	675.2000122
1349.665218	671.7999878
1350.200037	675.2000122
1350.734801	679.0
1351.269509	672.4000244
1351.804162	675.2000122
1352.338758	677.2000122
1352.8733	676.2000122
1353.407785	677.0
1353.942215	674.4000244
1354.476589	675.5999756
1355.010908	673.4000244
1355.545171	676.4000244
1356.079379	678.7999878
1356.61353	674.2000122
1357.147627	677.4000244
1357.681667	676.0
1358.215652	675.7999878
1358.749582	675.4000244
1359.283456	673.4000244
1359.817274	674.0
1360.351037	679.7999878
1360.884744	676.7999878
1361.418395	676.5999756
1361.951991	675.5999756
1362.485531	678.7999878
1363.019016	676.5999756
1363.552445	677.4000244
1364.085819	675.7999878
1364.619137	675.0
1365.1524	677.5999756
1365.685607	674.7999878
1366.218758	677.0
1366.751854	674.0
1367.284894	677.2000122
1367.817879	675.4000244
1368.350808	674.7999878
1368.883682	676.4000244
1369.4165	675.2000122
1369.949263	679.7999878
1370.48197	678.5999756
1371.014622	678.5999756
1371.547218	676.0
1372.079758	677.0
1372.612244	675.5999756
1373.144673	677.7999878
1373.677047	674.0
1374.209366	677.0
1374.741629	676.0
1375.273836	676.4000244
1375.805989	675.4000244
1376.338085	675.2000122
1376.870126	676.0
1377.402112	676.2000122
1377.934042	677.2000122
1378.465917	678.0
1378.997736	674.5999756
1379.5295	677.5999756
1380.061208	678.4000244
1380.592861	678.7999878
1381.124459	678.2000122
1381.656	675.4000244
1382.187487	675.7999878
1382.718918	673.4000244
1383.250294	676.2000122
1383.781614	680.2000122
1384.312879	676.5999756
1384.844088	674.2000122
1385.375242	678.2000122
1385.90634	680.5999756
1386.437383	681.0
1386.968371	687.7999878
1387.499303	692.2000122
1388.03018	735.7999878
1388.561001	883.2000122
1389.091767	893.7999878
1389.622478	731.4000244
1390.153133	689.7999878
1390.683733	680.2000122
1391.214277	679.7999878
1391.744766	679.4000244
1392.2752	675.4000244
1392.805578	675.0
1393.335901	673.4000244
1393.866168	678.5999756
1394.396381	673.5999756
1394.926537	674.2000122
1395.456639	672.5999756
1395.986685	677.2000122
1396.516675	675.7999878
1397.046611	676.4000244
1397.576491	676.0
1398.106315	676.4000244
1398.636084	675.2000122
1399.165798	675.5999756
1399.695457	674.7999878
1400.22506	674.7999878
1400.754608	679.0
1401.284101	675.5999756
1401.813538	673.0
1402.34292	676.5999756
1402.872247	670.4000244
1403.401518	673.4000244
1403.930734	675.0
1404.459895	673.5999756
1404.989	676.5999756
1405.51805	678.4000244
1406.047045	672.7999878
1406.575984	676.4000244
1407.104869	676.2000122
1407.633697	674.5999756
1408.162471	677.5999756
1408.691189	680.5999756
1409.219852	678.4000244
1409.74846	687.4000244
1410.277013	691.7999878
1410.80551	684.2000122
1411.333952	678.0
1411.862339	676.5999756
1412.39067	674.0
1412.918946	674.0
1413.447167	675.4000244
1413.975333	675.0
1414.503444	675.2000122
1415.031499	677.0
1415.559499	684.7999878
1416.087444	673.0
1416.615333	675.4000244
1417.143167	675.4000244
1417.670947	677.0
1418.19867	675.0
1418.726339	677.2000122
1419.253952	674.4000244
1419.781511	673.5999756
1420.309014	672.5999756
1420.836461	670.5999756
1421.363854	674.0
1421.891191	674.7999878
1422.418474	673.0
1422.945701	672.7999878
1423.472872	677.4000244
1423.999989	676.5999756
1424.52705	675.7999878
1425.054057	675.0
1425.581008	672.0
1426.107904	675.2000122
1426.634745	674.5999756
1427.16153	672.0
1427.688261	674.2000122
1428.214936	677.0
1428.741556	675.4000244
1429.268121	677.4000244
1429.794631	674.4000244
1430.321085	673.7999878
1430.847485	675.0
1431.373829	674.2000122
1431.900118	674.0
1432.426353	671.0
1432.952532	673.2000122
1433.478655	673.7999878
1434.004724	672.5999756
1434.530738	676.2000122
1435.056696	673.7999878
1435.5826	675.5999756
1436.108448	673.4000244
1436.634241	672.7999878
1437.159979	673.7999878
1437.685662	671.2000122
1438.21129	674.0
1438.736863	676.4000244
1439.262381	670.0
1439.787843	671.5999756
1440.313251	670.7999878
1440.838603	677.5999756
1441.3639	677.7999878
1441.889143	672.0
1442.41433	673.0
1442.939462	674.2000122
1443.464539	673.4000244
1443.989561	676.0
1444.514528	673.2000122
1445.03944	672.7999878
1445.564297	672.2000122
1446.089099	674.7999878
1446.613846	673.5999756
1447.138537	677.0
1447.663174	675.0
1448.187756	672.5999756
1448.712282	672.7999878
1449.236754	670.7999878
1449.761171	675.0
1450.285532	671.7999878
1450.809839	673.7999878
1451.33409	672.4000244
1451.858287	675.0
1452.382428	675.0
1452.906515	673.0
1453.430546	676.0
1453.954523	675.0
1454.478444	673.5999756
1455.002311	675.0
1455.526123	674.2000122
1456.049879	673.5999756
1456.573581	668.4000244
1457.097227	672.4000244
1457.620819	671.0
1458.144356	673.0
1458.667837	675.5999756
1459.191264	672.5999756
1459.714636	675.7999878
1460.237952	673.5999756
1460.761214	674.7999878
1461.284421	672.4000244
1461.807573	673.7999878
1462.33067	674.0
1462.853712	672.2000122
1463.376699	678.0
1463.899632	673.4000244
1464.422509	669.7999878
1464.945331	673.0
1465.468099	675.0
1465.990811	672.7999878
1466.513469	673.0
1467.036071	673.0
1467.558619	675.2000122
1468.081112	673.0
1468.60355	672.0
1469.125933	674.4000244
1469.648261	675.2000122
1470.170534	674.4000244
1470.692752	674.5999756
1471.214916	673.7999878
1471.737024	672.5999756
1472.259078	672.7999878
1472.781077	672.0
1473.303021	673.4000244
1473.82491	674.4000244
1474.346744	673.7999878
1474.868523	673.7999878
1475.390248	672.2000122
1475.911917	668.5999756
1476.433532	670.0
1476.955092	672.5999756
1477.476597	672.0
1477.998047	672.0
1478.519442	672.2000122
1479.040783	673.4000244
1479.562068	670.5999756
1480.083299	673.2000122
1480.604475	672.5999756
1481.125596	673.7999878
1481.646663	673.5999756
1482.167674	678.7999878
1482.688631	671.0
1483.209533	673.4000244
1483.73038	671.4000244
1484.251172	670.7999878
1484.771909	670.7999878
1485.292592	670.2000122
1485.81322	671.0
1486.333793	673.0
1486.854311	672.4000244
1487.374775	672.2000122
1487.895183	672.5999756
1488.415537	672.4000244
1488.935836	674.4000244
1489.456081	670.0
1489.97627	671.7999878
1490.496405	673.2000122
1491.016485	672.7999878
1491.536511	670.4000244
1492.056481	669.4000244
1492.576397	672.0
1493.096258	674.4000244
1493.616064	672.2000122
1494.135816	674.4000244
1494.655513	671.0
1495.175155	672.4000244
1495.694742	672.4000244
1496.214274	672.4000244
1496.733752	675.7999878
1497.253175	672.2000122
1497.772544	672.0
1498.291858	673.0
1498.811116	675.5999756
1499.330321	671.7999878
1499.84947	680.0
1500.368565	674.5999756
1500.887605	671.0
1501.406591	674.2000122
1501.925521	673.7999878
1502.444397	670.2000122
1502.963219	670.7999878
1503.481985	673.5999756
1504.000697	671.2000122
1504.519355	671.4000244
1505.037957	673.7999878
1505.556505	672.4000244
1506.074999	674.4000244
1506.593437	669.5999756
1507.111821	670.5999756
1507.63015	675.0
1508.148425	670.5999756
1508.666645	671.7999878
1509.18481	671.7999878
1509.702921	673.5999756
1510.220977	671.5999756
1510.738979	675.2000122
1511.256925	670.5999756
1511.774817	673.7999878
1512.292655	671.4000244
1512.810438	670.2000122
1513.328166	671.5999756
1513.84584	670.5999756
1514.363459	672.4000244
1514.881023	672.5999756
1515.398533	675.0
1515.915988	672.5999756
1516.433389	670.5999756
1516.950734	671.4000244
1517.468026	673.7999878
1517.985263	673.2000122
1518.502445	674.4000244
1519.019572	671.2000122
1519.536645	670.7999878
1520.053664	670.5999756
1520.570628	672.2000122
1521.087537	672.4000244
1521.604392	671.4000244
1522.121192	671.4000244
1522.637937	667.7999878
1523.154628	672.4000244
1523.671265	674.0
1524.187847	670.4000244
1524.704374	670.4000244
1525.220847	672.5999756
1525.737265	669.7999878
1526.253629	668.4000244
1526.769938	673.0
1527.286192	670.7999878
1527.802392	673.0
1528.318538	673.2000122
1528.834629	672.0
1529.350666	670.0
1529.866648	672.2000122
1530.382575	673.7999878
1530.898448	672.4000244
1531.414266	671.0
1531.93003	673.7999878
1532.44574	670.2000122
1532.961395	671.4000244
1533.476995	671.7999878
1533.992541	667.5999756
1534.508033	672.2000122
1535.02347	671.2000122
1535.538852	669.0
1536.05418	672.0
1536.569454	673.2000122
1537.084673	673.4000244
1537.599837	674.0
1538.114947	673.2000122
1538.630003	671.5999756
1539.145004	671.2000122
1539.659951	670.2000122
1540.174843	672.2000122
1540.689681	670.0
1541.204465	670.5999756
1541.719194	671.0
1542.233868	670.5999756
1542.748488	675.0
1543.263054	668.2000122
1543.777565	675.0
1544.292022	671.5999756
1544.806424	670.0
1545.320772	668.5999756
1545.835066	671.2000122
1546.349305	672.2000122
1546.863489	674.7999878
1547.37762	669.5999756
1547.891696	670.5999756
1548.405717	668.5999756
1548.919684	668.7999878
1549.433597	672.5999756
1549.947455	672.7999878
1550.461259	672.5999756
1550.975009	672.7999878
1551.488704	669.4000244
1552.002345	670.2000122
1552.515931	672.2000122
1553.029463	670.0
1553.542941	673.4000244
1554.056364	667.4000244
1554.569733	669.5999756
1555.083048	670.2000122
1555.596308	670.4000244
1556.109514	672.2000122
1556.622665	671.5999756
1557.135762	670.2000122
1557.648805	669.0
1558.161794	670.0
1558.674728	669.5999756
1559.187608	667.4000244
1559.700433	670.2000122
1560.213205	671.5999756
1560.725921	669.4000244
1561.238584	665.5999756
1561.751192	670.2000122
1562.263746	669.2000122
1562.776246	672.5999756
1563.288691	667.7999878
1563.801082	672.5999756
1564.313419	670.0
1564.825701	671.5999756
1565.337929	670.5999756
1565.850103	670.0
1566.362223	669.4000244
1566.874288	670.7999878
1567.386299	671.4000244
1567.898256	668.4000244
1568.410158	672.4000244
1568.922007	673.0
1569.4338	670.0
1569.94554	669.4000244
1570.457226	671.4000244
1570.968857	671.7999878
1571.480434	671.0
1571.991956	670.4000244
1572.503425	668.5999756
1573.014839	669.5999756
1573.526199	670.4000244
1574.037505	671.4000244
1574.548756	672.4000244
1575.059953	670.2000122
1575.571096	671.4000244
1576.082185	671.7999878
1576.59322	668.7999878
1577.1042	668.5999756
1577.615126	668.5999756
1578.125998	669.4000244
1578.636816	671.0
1579.14758	669.4000244
1579.658289	667.4000244
1580.168944	678.5999756
1581.190092	692.5999756
1581.700585	668.7999878
1582.211023	673.5999756
1582.721407	670.4000244
1583.231737	670.7999878
1583.742013	669.2000122
1584.252235	668.0
1584.762403	668.4000244
1585.272516	671.0
1585.782575	668.2000122
1586.292581	671.2000122
1586.802532	671.5999756
1587.312428	672.0
1587.822271	668.5999756
1588.33206	668.2000122
1588.841794	668.4000244
1589.351474	668.4000244
1589.8611	669.5999756
1590.370672	669.2000122
1590.88019	669.7999878
1591.389654	669.0
1591.899064	670.0
1592.408419	669.0
