1042.452273	675.5999756
1043.018714	676.7999878
1043.585098	678.0
1044.151424	674.4000244
1044.717692	671.0
1045.283903	672.7999878
1045.850056	672.7999878
1046.416151	674.2000122
1046.982188	669.7999878
1047.548167	670.7999878
1048.114089	674.5999756
1048.679953	667.7999878
1049.24576	673.7999878
1049.811509	671.7999878
1050.3772	671.0
1050.942833	670.5999756
1051.508408	671.4000244
1052.073926	669.2000122
1052.639387	668.4000244
1053.204789	670.7999878
1053.770134	666.7999878
1054.335421	670.5999756
1054.900651	671.5999756
1055.465823	666.7999878
1056.030937	664.7999878
1056.595993	666.7999878
1057.160992	669.2000122
1057.725934	668.0
1058.290817	670.5999756
1058.855643	668.2000122
1059.420411	668.0
1059.985122	665.7999878
1060.549775	668.2000122
1061.114371	665.0
1061.678908	669.4000244
1062.243389	666.2000122
1062.807811	664.2000122
1063.372176	666.4000244
1063.936483	663.2000122
1064.500733	666.7999878
1065.064925	666.4000244
1065.62906	668.5999756
1066.193137	667.5999756
1066.757156	667.5999756
1067.321118	667.4000244
1067.885022	665.7999878
1068.448869	667.5999756
1069.012658	671.2000122
1069.57639	666.7999878
1070.140063	671.7999878
1070.70368	666.0
1071.267239	666.5999756
1071.83074	667.4000244
1072.394184	665.0
1072.95757	665.2000122
1073.520899	667.4000244
1074.08417	668.7999878
1074.647383	666.0
1075.21054	665.4000244
1075.773638	667.7999878
1076.336679	666.5999756
1076.899663	665.5999756
1077.462589	665.2000122
1078.025457	670.4000244
1078.588268	668.2000122
1079.151022	668.0
1079.713718	665.7999878
1080.276356	667.7999878
1080.838937	665.4000244
1081.401461	667.0
1081.963927	665.0
1082.526336	670.0
1083.088687	666.7999878
1083.650981	667.2000122
1084.213217	666.7999878
1084.775396	666.7999878
1085.337517	665.0
1085.899581	667.0
1086.461587	665.7999878
1087.023536	665.4000244
1087.585428	667.5999756
1088.147262	664.2000122
1088.709039	666.7999878
1089.270758	666.5999756
1089.83242	663.7999878
1090.394024	666.0
1090.955571	665.5999756
1091.517061	665.0
1092.078493	665.4000244
1092.639868	666.7999878
1093.201185	664.4000244
1093.762445	665.5999756
1094.323648	666.7999878
1094.884793	666.0
1095.445881	664.2000122
1096.006911	671.0
1096.567884	667.5999756
1097.1288	668.5999756
1097.689659	667.2000122
1098.25046	667.0
1098.811203	664.5999756
1099.37189	666.7999878
1099.932518	666.2000122
1100.49309	664.0
1101.053604	660.7999878
1101.614061	663.4000244
1102.174461	663.5999756
1102.734803	667.2000122
1103.295088	665.2000122
1103.855316	664.5999756
1104.415486	666.2000122
1104.975599	666.7999878
1105.535655	663.0
1106.095653	667.7999878
1106.655594	663.2000122
1107.215478	668.0
1107.775305	663.5999756
1108.335074	665.0
1108.894786	665.4000244
1109.45444	666.5999756
1110.014038	666.4000244
1110.573578	664.4000244
1111.133061	666.0
1111.692486	665.0
1112.251854	667.5999756
1112.811165	667.2000122
1113.370419	666.5999756
1113.929616	666.7999878
1114.488755	666.4000244
1115.047837	665.0
1115.606862	663.5999756
1116.16583	665.2000122
1116.72474	663.7999878
1117.283593	668.2000122
1117.842389	663.7999878
1118.401128	665.0
1118.959809	668.5999756
1119.518433	666.5999756
1120.077	664.7999878
1120.63551	664.4000244
1121.193963	663.7999878
1121.752358	663.4000244
1122.310697	664.0
1122.868978	665.4000244
1123.427202	662.5999756
1123.985368	669.2000122
1124.543478	666.0
1125.10153	662.0
1125.659526	667.5999756
1126.217464	665.4000244
1126.775345	664.7999878
1127.333168	665.4000244
1127.890935	664.4000244
1128.448644	667.0
1129.006297	664.0
1129.563892	663.7999878
1130.12143	664.4000244
1130.678911	664.7999878
1131.236335	666.2000122
1131.793701	664.0
1132.351011	667.5999756
1132.908263	663.7999878
1133.465458	663.7999878
1134.022597	664.0
1134.579678	667.7999878
1135.136702	669.0
1135.693669	666.5999756
1136.250578	665.7999878
1136.807431	664.0
1137.364227	665.4000244
1137.920965	664.5999756
1138.477647	665.2000122
1139.034271	665.7999878
1139.590839	662.5999756
1140.147349	665.4000244
1140.703802	662.2000122
1141.260198	665.2000122
1141.816537	667.5999756
1142.37282	665.7999878
1142.929045	663.2000122
1143.485213	663.0
1144.041323	664.7999878
1144.597377	667.7999878
1145.153374	664.7999878
1145.709314	667.7999878
1146.265197	666.4000244
1146.821023	662.5999756
1147.376792	666.2000122
1147.932503	665.2000122
1148.488158	664.2000122
1149.043756	664.4000244
1149.599297	662.0
1150.154781	664.5999756
1150.710207	667.5999756
1151.265577	665.0
1151.82089	666.4000244
1152.376146	668.2000122
1152.931345	668.2000122
1153.486487	664.7999878
1154.041572	665.4000244
1154.5966	664.7999878
1155.151571	666.7999878
1155.706485	667.2000122
1156.261342	665.0
1156.816142	665.5999756
1157.370885	665.7999878
1157.925572	664.7999878
1158.480201	662.7999878
1159.034774	666.0
1159.589289	664.4000244
1160.143748	664.5999756
1160.698149	667.7999878
1161.252494	667.7999878
1161.806782	666.7999878
1162.361013	665.2000122
1162.915187	665.0
1163.469304	665.0
1164.023364	665.7999878
1164.577368	664.7999878
1165.131314	665.4000244
1165.685204	666.5999756
1166.239036	665.0
1166.792812	665.4000244
1167.346531	665.7999878
1167.900193	664.4000244
1168.453798	665.4000244
1169.007347	663.4000244
1169.560838	665.4000244
1170.114273	664.0
1170.66765	668.0
1171.220971	664.4000244
1171.774235	664.4000244
1172.327443	666.5999756
1172.880593	665.0
1173.433687	663.2000122
1173.986723	666.5999756
1174.539703	665.4000244
1175.092626	667.2000122
1175.645493	668.4000244
1176.198302	668.2000122
1176.751055	664.0
1177.303751	664.0
1177.85639	665.0
1178.408972	667.0
1178.961498	661.5999756
1179.513966	664.4000244
1180.066378	662.7999878
1180.618733	667.0
1181.171032	664.2000122
1181.723273	663.7999878
1182.275458	665.4000244
1182.827586	665.2000122
1183.379657	664.5999756
1183.931672	666.7999878
1184.48363	664.4000244
1185.035531	664.0
1185.587375	665.2000122
1186.139162	667.0
1186.690893	663.5999756
1187.242567	662.5999756
1187.794184	666.5999756
1188.345745	664.2000122
1188.897249	665.0
1189.448696	663.4000244
1190.000086	664.0
1190.55142	666.0
1191.102697	665.5999756
1191.653918	664.5999756
1192.205081	662.5999756
1192.756188	663.7999878
1193.307238	679.4000244
1193.858232	665.4000244
1194.409169	664.4000244
1194.960049	664.2000122
1195.510872	665.2000122
1196.061639	664.2000122
1196.612349	664.4000244
1197.163003	663.7999878
1197.713599	664.2000122
1198.264139	665.4000244
1198.814623	664.0
1199.36505	663.4000244
1199.91542	664.5999756
1200.465734	664.5999756
1201.01599	661.4000244
1201.566191	666.5999756
1202.116334	662.4000244
1202.666421	665.0
1203.216452	666.4000244
1203.766425	667.2000122
1204.316343	665.2000122
1204.866203	662.0
1205.416007	665.4000244
1205.965754	663.2000122
1206.515445	665.7999878
1207.065079	665.2000122
1207.614657	663.7999878
1208.164177	663.2000122
1208.713642	663.2000122
1209.26305	667.2000122
1209.812401	664.2000122
1210.361695	663.7999878
1210.910933	666.7999878
1211.460115	665.7999878
1212.00924	664.0
1212.558308	665.0
1213.10732	667.2000122
1213.656275	665.2000122
1214.205174	663.5999756
1214.754016	664.7999878
1215.302801	667.4000244
1215.85153	664.7999878
1216.400203	666.5999756
1216.948819	664.2000122
1217.497378	665.0
1218.045881	665.2000122
1218.594327	665.5999756
1219.142717	665.4000244
1219.691051	667.0
1220.239327	664.2000122
1220.787548	663.7999878
1221.335712	665.0
1221.883819	668.4000244
1222.43187	663.2000122
1222.979864	667.2000122
1223.527802	666.7999878
1224.075683	665.5999756
1224.623508	668.4000244
1225.171277	670.4000244
1226.266644	667.4000244
1226.814243	664.0
1227.361786	665.0
1227.909272	664.4000244
1228.456702	665.0
1229.004075	663.7999878
1229.551392	667.0
1230.098652	663.5999756
1230.645856	666.7999878
1231.193003	669.4000244
1231.740094	668.5999756
1232.287129	666.0
1232.834107	664.5999756
1233.381029	665.4000244
1233.927894	663.7999878
1234.474703	667.7999878
1235.021455	668.0
1235.568151	667.0
1236.114791	669.2000122
1236.661374	668.2000122
1237.207901	664.4000244
1237.754372	663.5999756
1238.300786	666.4000244
1238.847144	668.0
1239.393445	666.2000122
1239.93969	666.4000244
1240.485879	666.5999756
1241.032011	666.5999756
1241.578087	667.4000244
1242.124106	666.2000122
1242.67007	668.4000244
1243.215976	667.7999878
1243.761827	668.0
1244.307621	663.7999878
1244.853359	664.5999756
1245.39904	668.4000244
1245.944665	664.7999878
1246.490234	667.2000122
1247.035746	668.2000122
1247.581203	668.5999756
1248.126602	666.5999756
1248.671946	667.5999756
1249.217233	667.2000122
1249.762464	665.7999878
1250.307638	667.5999756
1250.852757	667.2000122
1251.397819	666.7999878
1251.942824	666.5999756
1252.487774	667.0
1253.032667	665.2000122
1253.577503	665.2000122
1254.122284	669.4000244
1254.667008	665.5999756
1255.211676	667.4000244
1255.756288	668.0
1256.300843	666.2000122
1256.845342	667.7999878
1257.389785	671.4000244
1257.934172	670.2000122
1258.478502	668.0
1259.022776	671.7999878
1259.566994	669.4000244
1260.111156	677.2000122
1260.655261	669.7999878
1261.199311	666.2000122
1261.743304	670.4000244
1262.28724	672.7999878
1262.831121	674.5999756
1263.374945	677.4000244
1263.918713	683.2000122
1264.462425	693.0
1265.006081	698.4000244
1265.54968	690.0
1266.093223	678.7999878
1266.636711	672.5999756
1267.180141	670.2000122
1267.723516	668.7999878
1268.266835	670.4000244
1268.810097	668.2000122
1269.353303	668.7999878
1269.896453	670.0
1270.439547	668.0
1270.982584	666.7999878
1271.525566	667.2000122
1272.068491	671.4000244
1272.61136	668.2000122
1273.154173	668.4000244
1273.69693	665.4000244
1274.239631	667.2000122
1274.782275	669.4000244
1275.324864	669.5999756
1275.867396	667.7999878
1276.409872	669.5999756
1276.952292	669.0
1277.494656	669.5999756
1278.036964	668.5999756
1278.579215	669.7999878
1279.121411	671.2000122
1279.66355	673.5999756
1280.205634	672.4000244
1280.747661	671.4000244
1281.289632	678.4000244
1281.831547	681.4000244
1282.373406	692.2000122
1282.915209	706.5999756
1283.456955	743.5999756
1283.998646	831.2000122
1284.540281	1032.800049
1285.081859	1155.0
1285.623381	948.0
1286.164848	766.4000244
1286.706258	710.5999756
1287.247612	691.5999756
1287.788911	681.5999756
1288.330153	674.7999878
1288.871339	674.4000244
1289.412469	670.2000122
1289.953543	672.2000122
1290.494561	671.2000122
1291.035523	669.5999756
1291.576428	665.0
1292.117278	669.0
1292.658072	668.7999878
1293.19881	667.2000122
1293.739492	670.7999878
1294.280118	666.4000244
1294.820687	666.4000244
1295.361201	665.5999756
1295.901659	666.7999878
1296.442061	669.0
1296.982406	667.5999756
1297.522696	666.2000122
1298.06293	668.2000122
1298.603108	666.7999878
1299.143229	667.4000244
1299.683295	667.2000122
1300.223305	668.0
1300.763259	665.2000122
1301.303157	668.4000244
1301.842999	668.0
1302.382785	665.0
1302.922515	667.7999878
1303.462189	666.4000244
1304.001807	663.7999878
1304.541369	666.5999756
1305.080875	666.2000122
1305.620326	666.2000122
1306.15972	668.0
1306.699058	666.5999756
1307.238341	668.5999756
1307.777567	665.2000122
1308.316738	666.4000244
1308.855853	667.7999878
1309.394912	667.5999756
1309.933915	667.0
1310.472862	665.7999878
1311.011753	664.4000244
1311.550588	665.0
1312.089367	665.7999878
1312.62809	662.5999756
1313.166758	666.2000122
1313.70537	665.2000122
1314.243925	665.2000122
1314.782425	668.7999878
1315.320869	665.7999878
1315.859257	664.2000122
1316.397589	665.2000122
1316.935866	668.0
1317.474086	664.5999756
1318.012251	663.5999756
1318.55036	667.7999878
1319.088413	665.5999756
1319.62641	666.5999756
1320.164351	666.7999878
1320.702236	667.7999878
1321.240066	664.7999878
1321.777839	667.2000122
1322.315557	665.7999878
1322.853219	665.0
1323.390826	664.5999756
1323.928376	667.4000244
1324.465871	666.7999878
1325.003309	665.4000244
1325.540692	667.2000122
1326.07802	668.4000244
1326.615291	664.7999878
1327.152506	665.5999756
1327.689666	664.7999878
1328.22677	667.4000244
1328.763818	665.2000122
1329.300811	665.2000122
1329.837747	668.4000244
1330.374628	662.0
1330.911453	666.7999878
1331.448222	668.0
1331.984936	666.4000244
1332.521594	665.0
1333.058196	662.4000244
1333.594742	666.0
1334.131232	664.4000244
1334.667667	664.2000122
1335.204046	664.4000244
1335.740369	668.0
1336.276637	668.2000122
1336.812848	666.0
1337.349004	667.2000122
1337.885105	663.7999878
1338.421149	663.7999878
1338.957138	664.2000122
1339.493071	665.0
1340.028949	662.4000244
1340.56477	666.7999878
1341.100536	665.7999878
1341.636246	667.0
1342.171901	664.7999878
1342.7075	667.0
1343.243043	665.5999756
1343.77853	664.2000122
1344.313962	666.0
1344.849338	668.2000122
1345.384659	666.5999756
1345.919923	664.4000244
1346.455133	665.4000244
1346.990286	663.5999756
1347.525384	665.4000244
1348.060426	662.7999878
1348.595412	662.5999756
1349.130343	664.5999756
1349.665218	667.2000122
1350.200037	665.7999878
1350.734801	668.7999878
1351.269509	669.0
1351.804162	664.2000122
1352.338758	665.5999756
1352.8733	664.7999878
1353.407785	666.2000122
1353.942215	664.4000244
1354.476589	666.5999756
1355.010908	664.7999878
1355.545171	668.0
1356.079379	667.7999878
1356.61353	663.4000244
1357.147627	666.7999878
1357.681667	666.2000122
1358.215652	665.2000122
1358.749582	665.0
1359.283456	666.2000122
1359.817274	668.4000244
1360.351037	668.2000122
1360.884744	664.4000244
1361.418395	664.7999878
1361.951991	664.7999878
1362.485531	667.5999756
1363.019016	667.2000122
1363.552445	668.7999878
1364.085819	666.7999878
1364.619137	667.4000244
1365.1524	668.0
1365.685607	669.5999756
1366.218758	667.5999756
1366.751854	667.5999756
1367.284894	668.5999756
1367.817879	664.5999756
1368.350808	663.5999756
1368.883682	670.0
1369.4165	669.0
1369.949263	677.5999756
1370.48197	680.2000122
1371.014622	673.7999878
1371.547218	670.2000122
1372.079758	667.7999878
1372.612244	666.2000122
1373.144673	667.7999878
1373.677047	668.0
1374.209366	665.7999878
1374.741629	669.5999756
1375.273836	667.0
1375.805989	669.5999756
1376.338085	666.5999756
1376.870126	670.2000122
1377.402112	669.0
1377.934042	666.7999878
1378.465917	671.5999756
1378.997736	670.0
1379.5295	670.2000122
1380.061208	669.0
1380.592861	668.2000122
1381.124459	670.4000244
1381.656	671.0
1382.187487	671.4000244
1382.718918	671.7999878
1383.250294	674.5999756
1383.781614	679.7999878
1384.312879	677.2000122
1384.844088	677.5999756
1385.375242	684.7999878
1385.90634	692.5999756
1386.437383	710.0
1386.968371	748.7999878
1387.499303	860.2000122
1388.03018	1245.599976
1388.561001	1590.599976
1389.091767	1164.599976
1389.622478	808.2000122
1390.153133	720.7999878
1390.683733	698.5999756
1391.214277	684.5999756
1391.744766	677.2000122
1392.2752	677.0
1392.805578	676.2000122
1393.335901	673.5999756
1393.866168	675.5999756
1394.396381	669.0
1394.926537	672.0
1395.456639	670.7999878
1395.986685	671.0
1396.516675	668.0
1397.046611	672.4000244
1397.576491	668.4000244
1398.106315	668.4000244
1398.636084	668.0
1399.165798	670.2000122
1399.695457	667.0
1400.22506	672.0
1400.754608	667.5999756
1401.284101	668.5999756
1401.813538	670.0
1402.34292	668.7999878
1402.872247	668.4000244
1403.401518	669.4000244
1403.930734	671.4000244
1404.459895	667.0
1404.989	666.7999878
1405.51805	667.2000122
1406.047045	669.5999756
1406.575984	672.5999756
1407.104869	671.2000122
1407.633697	678.0
1408.162471	683.0
1408.691189	689.2000122
1409.219852	701.5999756
1409.74846	718.4000244
1410.277013	709.7999878
1410.80551	694.5999756
1411.333952	683.0
1411.862339	672.4000244
1412.39067	668.7999878
1412.918946	668.2000122
1413.447167	667.7999878
1413.975333	666.4000244
1414.503444	668.2000122
1415.031499	667.4000244
1415.559499	675.5999756
1416.087444	667.2000122
1416.615333	665.5999756
1417.143167	663.5999756
1417.670947	666.0
1418.19867	665.7999878
1418.726339	667.2000122
1419.253952	664.7999878
1419.781511	663.5999756
1420.309014	664.4000244
1420.836461	662.0
1421.363854	666.2000122
1421.891191	663.5999756
1422.418474	668.7999878
1422.945701	665.0
1423.472872	666.4000244
1423.999989	665.7999878
1424.52705	665.0
1425.054057	665.0
1425.581008	668.0
1426.107904	663.5999756
1426.634745	666.0
1427.16153	664.5999756
1427.688261	666.0
1428.214936	666.2000122
1428.741556	664.7999878
1429.268121	664.7999878
1429.794631	661.2000122
1430.321085	663.4000244
1430.847485	666.7999878
1431.373829	662.4000244
1431.900118	663.5999756
1432.426353	662.7999878
1432.952532	664.0
1433.478655	665.4000244
1434.004724	663.4000244
1434.530738	663.7999878
1435.056696	664.0
1435.5826	664.7999878
1436.108448	663.7999878
1436.634241	664.0
1437.159979	662.4000244
1437.685662	664.2000122
1438.21129	663.0
1438.736863	660.2000122
1439.262381	661.4000244
1439.787843	662.5999756
1440.313251	663.4000244
1440.838603	663.7999878
1441.3639	660.4000244
1441.889143	662.2000122
1442.41433	661.5999756
1442.939462	660.7999878
1443.464539	661.7999878
1443.989561	663.2000122
1444.514528	660.5999756
1445.03944	664.5999756
1445.564297	662.4000244
1446.089099	665.2000122
1446.613846	661.7999878
1447.138537	661.5999756
1447.663174	664.7999878
1448.187756	665.5999756
1448.712282	664.4000244
1449.236754	663.7999878
1449.761171	662.2000122
1450.285532	662.2000122
1450.809839	660.5999756
1451.33409	662.5999756
1451.858287	662.0
1452.382428	663.7999878
1452.906515	663.5999756
1453.430546	661.2000122
1453.954523	663.7999878
1454.478444	662.4000244
1455.002311	659.5999756
1455.526123	662.0
1456.049879	661.4000244
1456.573581	663.7999878
1457.097227	661.7999878
1457.620819	661.5999756
1458.144356	662.7999878
1458.667837	663.5999756
1459.191264	662.0
1459.714636	662.4000244
1460.237952	662.7999878
1460.761214	660.4000244
1461.284421	664.0
1461.807573	661.4000244
1462.33067	666.2000122
1462.853712	659.4000244
1463.376699	662.5999756
1463.899632	661.5999756
1464.422509	663.2000122
1464.945331	661.0
1465.468099	662.5999756
1465.990811	662.5999756
1466.513469	661.0
1467.036071	662.0
1467.558619	663.2000122
1468.081112	660.5999756
1468.60355	662.4000244
1469.125933	660.5999756
1469.648261	663.2000122
1470.170534	662.4000244
1470.692752	660.7999878
1471.214916	663.5999756
1471.737024	661.4000244
1472.259078	661.7999878
1472.781077	661.7999878
1473.303021	659.5999756
1473.82491	662.5999756
1474.346744	659.2000122
1474.868523	661.4000244
1475.390248	659.2000122
1475.911917	663.5999756
1476.433532	659.5999756
1476.955092	661.7999878
1477.476597	661.7999878
1477.998047	661.7999878
1478.519442	661.4000244
1479.040783	660.5999756
1479.562068	663.7999878
1480.083299	662.2000122
1480.604475	659.2000122
1481.125596	662.4000244
1481.646663	660.0
1482.167674	661.0
1482.688631	660.4000244
1483.209533	659.4000244
1483.73038	660.2000122
1484.251172	660.2000122
1484.771909	661.5999756
1485.292592	662.5999756
1485.81322	661.4000244
1486.333793	663.4000244
1486.854311	659.4000244
1487.374775	661.5999756
1487.895183	660.7999878
1488.415537	662.5999756
1488.935836	660.0
1489.456081	660.7999878
1489.97627	662.5999756
1490.496405	659.5999756
1491.016485	660.4000244
1491.536511	662.0
1492.056481	657.5999756
1492.576397	659.7999878
1493.096258	662.5999756
1493.616064	659.7999878
1494.135816	662.4000244
1494.655513	659.7999878
1495.175155	662.7999878
1495.694742	662.5999756
1496.214274	659.7999878
1496.733752	661.4000244
1497.253175	660.5999756
1497.772544	660.2000122
1498.291858	659.5999756
1498.811116	659.2000122
1499.330321	658.0
1499.84947	668.0
1500.368565	659.4000244
1500.887605	662.4000244
1501.406591	663.7999878
1501.925521	661.5999756
1502.444397	661.7999878
1502.963219	663.0
1503.481985	662.2000122
1504.000697	660.4000244
1504.519355	660.5999756
1505.037957	659.7999878
1505.556505	659.4000244
1506.074999	661.2000122
1506.593437	662.0
1507.111821	660.5999756
1507.63015	659.0
1508.148425	661.5999756
1508.666645	658.7999878
1509.18481	658.5999756
1509.702921	659.2000122
1510.220977	660.2000122
1510.738979	669.4000244
1511.256925	659.4000244
1511.774817	662.0
1512.292655	660.7999878
1512.810438	660.4000244
1513.328166	659.0
1513.84584	659.0
1514.363459	658.5999756
1514.881023	658.5999756
1515.398533	659.7999878
1515.915988	656.7999878
1516.433389	661.5999756
1516.950734	659.4000244
1517.468026	661.4000244
1517.985263	661.7999878
1518.502445	659.7999878
1519.019572	659.5999756
1519.536645	658.2000122
1520.053664	661.0
1520.570628	660.2000122
1521.087537	660.7999878
1521.604392	661.4000244
1522.121192	659.2000122
1522.637937	660.4000244
1523.154628	660.4000244
1523.671265	660.2000122
1524.187847	660.2000122
1524.704374	660.5999756
1525.220847	660.2000122
1525.737265	660.0
1526.253629	663.4000244
1526.769938	660.2000122
1527.286192	660.5999756
1527.802392	661.7999878
1528.318538	658.5999756
1528.834629	660.0
1529.350666	662.5999756
1529.866648	663.2000122
1530.382575	658.4000244
1530.898448	657.4000244
1531.414266	660.4000244
1531.93003	659.2000122
1532.44574	662.0
1532.961395	660.0
1533.476995	660.4000244
1533.992541	661.4000244
1534.508033	662.0
1535.02347	661.2000122
1535.538852	658.4000244
1536.05418	660.2000122
1536.569454	658.7999878
1537.084673	660.5999756
1537.599837	660.0
1538.114947	660.7999878
1538.630003	660.0
1539.145004	662.0
1539.659951	660.7999878
1540.174843	660.7999878
1540.689681	660.0
1541.204465	659.0
1541.719194	659.5999756
1542.233868	660.7999878
1542.748488	658.7999878
1543.263054	658.7999878
1543.777565	657.5999756
1544.292022	659.7999878
1544.806424	660.4000244
1545.320772	661.4000244
1545.835066	659.5999756
1546.349305	661.2000122
1546.863489	660.5999756
1547.37762	661.2000122
1547.891696	659.5999756
1548.405717	664.4000244
1548.919684	656.7999878
1549.433597	661.2000122
1549.947455	661.5999756
1550.461259	661.0
1550.975009	659.0
1551.488704	661.4000244
1552.002345	661.0
1552.515931	659.7999878
1553.029463	657.2000122
1553.542941	657.0
1554.056364	657.2000122
1554.569733	661.5999756
1555.083048	657.7999878
1555.596308	659.5999756
1556.109514	660.0
1556.622665	658.4000244
1557.135762	660.4000244
1557.648805	661.2000122
1558.161794	660.2000122
1558.674728	658.5999756
1559.187608	661.0
1559.700433	659.7999878
1560.213205	660.0
1560.725921	660.0
1561.238584	661.2000122
1561.751192	659.5999756
1562.263746	659.7999878
1562.776246	661.5999756
1563.288691	658.0
1563.801082	659.2000122
1564.313419	661.5999756
1564.825701	661.7999878
1565.337929	660.0
1565.850103	659.2000122
1566.362223	659.7999878
1566.874288	658.0
1567.386299	660.0
1567.898256	660.5999756
1568.410158	660.7999878
1568.922007	657.4000244
1569.4338	659.4000244
1569.94554	659.2000122
1570.457226	661.2000122
1570.968857	659.4000244
1571.480434	660.4000244
1571.991956	659.2000122
1572.503425	659.2000122
1573.014839	662.2000122
1573.526199	659.4000244
1574.037505	662.2000122
1574.548756	659.5999756
1575.059953	662.0
1575.571096	662.0
1576.082185	662.0
1576.59322	659.7999878
1577.1042	661.0
1577.615126	658.4000244
1578.125998	657.7999878
1578.636816	659.2000122
1579.14758	662.2000122
1579.658289	660.4000244
1580.168944	659.7999878
1580.679545	661.4000244
1581.190092	661.0
1581.700585	659.4000244
1582.211023	661.5999756
1582.721407	660.0
1583.231737	658.5999756
1583.742013	661.0
1584.252235	659.4000244
1584.762403	660.4000244
1585.272516	657.5999756
1585.782575	660.0
1586.292581	658.0
1586.802532	659.7999878
1587.312428	659.5999756
1587.822271	658.2000122
1588.33206	660.0
1588.841794	661.2000122
1589.351474	658.0
1589.8611	658.4000244
1590.370672	659.5999756
1590.88019	661.5999756
1591.389654	659.2000122
1591.899064	662.0
1592.408419	658.4000244
