1042.545976	756.5999756
1043.112314	756.0
1043.678594	763.7999878
1044.244816	757.2000122
1044.810979	755.2000122
1045.377084	761.4000244
1045.943132	758.4000244
1046.509121	752.0
1047.075052	751.4000244
1047.640924	756.7999878
1048.206739	756.0
1048.772495	755.5999756
1049.338193	753.2000122
1049.903833	755.4000244
1050.469415	757.7999878
1051.034939	754.4000244
1051.600404	750.0
1052.165811	752.4000244
1052.731161	751.0
1053.296452	754.0
1053.861685	757.0
1054.426859	756.7999878
1054.991976	753.7999878
1055.557035	754.7999878
1056.122035	751.5999756
1056.686978	746.7999878
1057.251862	753.0
1057.816688	750.0
1058.381456	746.0
1058.946166	752.0
1059.510818	756.5999756
1060.075411	752.5999756
1060.639947	749.0
1061.204425	750.0
1061.768844	753.2000122
1062.333206	745.2000122
1062.897509	745.4000244
1063.461754	749.7999878
1064.025942	750.0
1064.590071	746.0
1065.154142	743.4000244
1065.718155	750.4000244
1066.28211	748.5999756
1066.846007	748.4000244
1067.409846	753.4000244
1067.973627	751.4000244
1068.53735	753.5999756
1069.101014	750.4000244
1069.664621	747.2000122
1070.22817	755.2000122
1070.791661	742.2000122
1071.355094	750.4000244
1071.918469	745.7999878
1072.481785	751.2000122
1073.045044	746.0
1073.608245	751.5999756
1074.171388	748.0
1074.734473	747.0
1075.297499	749.2000122
1075.860468	741.0
1076.423379	747.4000244
1076.986232	748.2000122
1077.549027	745.5999756
1078.111764	739.5999756
1078.674443	748.4000244
1079.237064	747.2000122
1079.799627	749.4000244
1080.362132	741.7999878
1080.92458	745.4000244
1081.486969	745.2000122
1082.0493	748.4000244
1082.611574	753.4000244
1083.173789	749.5999756
1083.735947	742.5999756
1084.298047	744.7999878
1084.860088	746.7999878
1085.422072	742.4000244
1085.983998	744.7999878
1086.545866	744.7999878
1087.107677	743.7999878
1087.669429	749.5999756
1088.231123	741.0
1088.79276	743.7999878
1089.354338	744.5999756
1089.915859	745.5999756
1090.477322	743.4000244
1091.038727	741.2000122
1091.600074	743.2000122
1092.161363	744.0
1092.722595	740.4000244
1093.283768	746.4000244
1093.844884	745.4000244
1094.405942	743.7999878
1094.966942	738.4000244
1095.527884	742.5999756
1096.088768	736.4000244
1096.649595	741.0
1097.210364	744.4000244
1097.771074	742.2000122
1098.331728	739.2000122
1098.892323	745.5999756
1099.45286	737.0
1100.01334	738.0
1100.573762	741.0
1101.134126	745.2000122
1101.694432	741.7999878
1102.25468	742.5999756
1102.814871	738.2000122
1103.375004	745.7999878
1103.935079	741.2000122
1104.495096	742.5999756
1105.055056	739.7999878
1105.614958	736.2000122
1106.174802	741.4000244
1106.734588	737.0
1107.294317	741.7999878
1107.853987	746.7999878
1108.4136	741.7999878
1108.973156	738.5999756
1109.532653	738.0
1110.092093	741.7999878
1110.651475	741.7999878
1111.2108	737.5999756
1111.770066	734.0
1112.329275	739.0
1112.888426	744.7999878
1113.44752	741.4000244
1114.006556	738.7999878
1114.565534	736.2000122
1115.124454	740.5999756
1115.683317	733.7999878
1116.242122	738.2000122
1116.800869	737.7999878
1117.359559	746.0
1117.918191	742.4000244
1118.476765	745.0
1119.035282	738.7999878
1119.593741	737.0
1120.152142	732.2000122
1120.710486	741.7999878
1121.268772	734.7999878
1121.827	737.4000244
1122.385171	738.7999878
1122.943284	738.0
1123.50134	742.7999878
1124.059337	734.2000122
1124.617277	737.5999756
1125.17516	740.0
1125.732985	740.4000244
1126.290752	738.2000122
1126.848462	741.0
1127.406114	740.0
1127.963709	740.7999878
1128.521245	738.7999878
1129.078725	738.2000122
1129.636146	738.0
1130.193511	737.5999756
1130.750817	734.0
1131.308066	739.7999878
1131.865257	739.0
1132.422391	744.4000244
1132.979467	738.7999878
1133.536486	735.5999756
1134.093447	739.0
1134.650351	737.4000244
1135.207197	740.7999878
1135.763985	733.0
1136.320716	735.0
1136.877389	736.4000244
1137.434005	738.4000244
1137.990563	732.5999756
1138.547064	735.7999878
1139.103507	738.5999756
1139.659893	741.2000122
1140.216221	738.2000122
1140.772492	736.5999756
1141.328705	736.5999756
1141.884861	735.2000122
1142.440959	740.2000122
1142.997	736.0
1143.552983	740.2000122
1144.108908	737.0
1144.664777	735.0
1145.220587	737.5999756
1145.776341	734.4000244
1146.332036	738.4000244
1146.887675	739.7999878
1147.443256	741.4000244
1147.998779	744.2000122
1148.554245	741.2000122
1149.109653	737.4000244
1149.665004	745.7999878
1150.220298	778.4000244
1150.775534	803.5999756
1151.330713	765.0
1151.885834	736.7999878
1152.440898	741.7999878
1152.995904	737.7999878
1153.550853	735.4000244
1154.105745	736.4000244
1154.660579	737.0
1155.215356	735.7999878
1155.770075	733.2000122
1156.324737	731.7999878
1156.879341	736.7999878
1157.433889	733.4000244
1157.988378	733.2000122
1158.542811	736.7999878
1159.097186	736.5999756
1159.651503	737.4000244
1160.205764	735.0
1160.759966	736.5999756
1161.314112	736.5999756
1161.8682	739.4000244
1162.422231	735.2000122
1162.976204	734.7999878
1163.53012	735.5999756
1164.083979	734.5999756
1164.637781	730.7999878
1165.191525	736.0
1165.745211	737.5999756
1166.298841	732.5999756
1166.852413	736.0
1167.405928	733.5999756
1167.959385	733.7999878
1168.512785	737.2000122
1169.066128	728.7999878
1169.619413	737.7999878
1170.172642	734.2000122
1170.725813	737.4000244
1171.278926	731.0
1171.831983	735.5999756
1172.384982	733.2000122
1172.937923	733.4000244
1173.490808	733.2000122
1174.043635	733.0
1174.596405	730.2000122
1175.149118	730.4000244
1175.701773	735.2000122
1176.254371	735.2000122
1176.806912	734.0
1177.359396	734.7999878
1177.911822	734.5999756
1178.464192	733.0
1179.016503	732.0
1179.568758	727.0
1180.120956	733.0
1180.673096	730.5999756
1181.225179	733.5999756
1181.777205	735.5999756
1182.329173	731.7999878
1182.881085	730.2000122
1183.432939	730.2000122
1183.984736	729.7999878
1184.536476	729.2000122
1185.088158	734.2000122
1185.639784	729.5999756
1186.191352	731.2000122
1186.742863	736.0
1187.294317	730.4000244
1187.845713	735.7999878
1188.397053	727.0
1188.948335	731.4000244
1189.499561	731.7999878
1190.050729	731.0
1190.601839	735.7999878
1191.152893	732.0
1191.70389	736.7999878
1192.254829	729.4000244
1192.805712	732.2000122
1193.356537	747.0
1193.907305	736.2000122
1194.458016	731.7999878
1195.00867	730.2000122
1195.559266	732.7999878
1196.109806	731.2000122
1196.660288	734.0
1197.210714	727.2000122
1197.761082	729.4000244
1198.311393	729.4000244
1198.861647	736.7999878
1199.411844	733.7999878
1199.961984	731.0
1200.512067	729.0
1201.062092	726.5999756
1201.612061	731.4000244
1202.161973	731.5999756
1202.711827	725.4000244
1203.261625	727.2000122
1203.811365	729.4000244
1204.361048	732.7999878
1204.910675	725.2000122
1205.460244	731.7999878
1206.009756	724.4000244
1206.559211	733.2000122
1207.10861	731.2000122
1207.657951	730.7999878
1208.207235	730.2000122
1208.756462	732.5999756
1209.305632	730.5999756
1209.854745	728.4000244
1210.403801	728.5999756
1210.9528	732.5999756
1211.501742	730.0
1212.050627	730.2000122
1212.599455	729.7999878
1213.148226	732.2000122
1213.69694	728.2000122
1214.245597	726.4000244
1214.794197	728.2000122
1215.34274	730.5999756
1215.891227	729.7999878
1216.439656	732.2000122
1216.988028	729.2000122
1217.536343	728.0
1218.084602	728.2000122
1218.632803	726.0
1219.180947	726.5999756
1219.729035	730.4000244
1220.277065	732.2000122
1220.825039	728.5999756
1221.372956	729.7999878
1221.920815	731.4000244
1222.468618	731.0
1223.016364	729.4000244
1223.564053	730.5999756
1224.111685	727.2000122
1224.65926	727.7999878
1225.206779	731.7999878
1225.75424	728.5999756
1226.301645	726.4000244
1226.848992	725.2000122
1227.396283	733.0
1227.943517	729.2000122
1228.490694	727.4000244
1229.037814	727.5999756
1229.584877	729.0
1230.131883	727.2000122
1230.678833	727.4000244
1231.225725	728.7999878
1231.772561	726.2000122
1232.31934	731.4000244
1232.866062	728.4000244
1233.412727	730.5999756
1233.959336	724.4000244
1234.505887	731.5999756
1235.052382	730.4000244
1235.59882	727.4000244
1236.145201	726.7999878
1236.691525	728.4000244
1237.237793	727.2000122
1237.784003	725.0
1238.330157	730.0
1238.876254	733.5999756
1239.422295	726.7999878
1239.968278	729.0
1240.514205	727.7999878
1241.060074	727.4000244
1241.605888	729.4000244
1242.151644	732.7999878
1242.697343	733.7999878
1243.242986	726.5999756
1243.788572	725.5999756
1244.334101	727.5999756
1244.879574	731.4000244
1245.42499	726.5999756
1245.970349	729.5999756
1246.515651	725.5999756
1247.060896	728.4000244
1247.606085	731.4000244
1248.151217	731.2000122
1248.696292	724.7999878
1249.241311	727.0
1249.786273	731.0
1250.331178	732.7999878
1250.876026	728.5999756
1251.420818	724.4000244
1251.965553	729.7999878
1252.510231	730.5999756
1253.054853	729.2000122
1253.599418	727.7999878
1254.143926	728.4000244
1254.688377	727.5999756
1255.232772	729.4000244
1255.77711	727.2000122
1256.321392	728.2000122
1256.865617	722.7999878
1257.409785	725.0
1257.953896	726.0
1258.497951	728.0
1259.041949	729.0
1259.585891	736.2000122
1260.129776	738.4000244
1260.673604	726.5999756
1261.217375	730.0
1261.76109	728.0
1262.304749	730.4000244
1262.84835	727.5999756
1263.391896	736.7999878
1263.935384	735.2000122
1264.478816	742.4000244
1265.022191	766.5999756
1265.56551	759.2000122
1266.108772	739.5999756
1266.651977	732.5999756
1267.195126	728.0
1267.738218	724.7999878
1268.281254	727.5999756
1268.824233	730.0
1269.367155	730.0
1269.910021	722.5999756
1270.452831	729.0
1270.995583	726.0
1271.53828	725.2000122
1272.080919	727.5999756
1272.623502	732.2000122
1273.166029	724.0
1273.708499	730.4000244
1274.250912	726.4000244
1274.793269	727.5999756
1275.33557	731.2000122
1275.877814	726.7999878
1276.420001	731.5999756
1276.962132	727.0
1277.504206	720.4000244
1278.046224	728.4000244
1278.588185	734.5999756
1279.13009	725.2000122
1279.671938	727.2000122
1280.21373	731.4000244
1280.755465	728.2000122
1281.297144	725.0
1281.838766	733.4000244
1282.380332	729.2000122
1282.921841	743.5999756
1283.463294	752.7999878
1284.004691	787.5999756
1284.546031	909.7999878
1285.087314	1215.199951
1285.628541	1225.599976
1286.169711	888.0
1286.710826	770.5999756
1287.251883	744.0
1287.792884	735.5999756
1288.333829	732.7999878
1288.874717	727.7999878
1289.415549	733.7999878
1289.956325	725.4000244
1290.497044	726.4000244
1291.037706	727.7999878
1291.578313	727.7999878
1292.118862	729.0
1292.659356	726.4000244
1293.199793	726.7999878
1293.740173	727.4000244
1294.280498	724.7999878
1294.820765	724.5999756
1295.360977	728.5999756
1295.901132	727.4000244
1296.44123	726.4000244
1296.981273	725.0
1297.521259	727.2000122
1298.061188	727.4000244
1298.601061	722.0
1299.140878	726.2000122
1299.680639	721.7999878
1300.220343	720.2000122
1300.75999	725.4000244
1301.299582	718.5999756
1301.839117	723.2000122
1302.378596	724.4000244
1302.918018	723.7999878
1303.457384	721.4000244
1303.996694	721.7999878
1304.535947	725.7999878
1305.075145	723.7999878
1305.614285	724.2000122
1306.15337	722.2000122
1306.692398	728.5999756
1307.23137	724.7999878
1307.770286	722.5999756
1308.309145	722.2000122
1308.847948	723.7999878
1309.386695	726.0
1309.925385	723.7999878
1310.464019	720.2000122
1311.002597	724.5999756
1311.541119	721.2000122
1312.079584	725.0
1312.617993	723.2000122
1313.156346	720.4000244
1313.694643	719.4000244
1314.232883	723.0
1314.771067	724.2000122
1315.309195	722.0
1315.847267	724.2000122
1316.385282	720.5999756
1316.923241	723.0
1317.461144	719.4000244
1317.998991	721.0
1318.536782	719.2000122
1319.074516	723.0
1319.612194	726.0
1320.149816	717.4000244
1320.687382	724.2000122
1321.224891	717.7999878
1321.762344	722.7999878
1322.299742	719.5999756
1322.837083	725.0
1323.374367	718.4000244
1323.911596	728.0
1324.448768	722.2000122
1324.985885	718.2000122
1325.522945	724.2000122
1326.059949	724.2000122
1326.596896	724.4000244
1327.133788	721.2000122
1327.670623	718.7999878
1328.207403	726.4000244
1328.744126	719.5999756
1329.280793	719.2000122
1329.817404	720.4000244
1330.353959	724.4000244
1330.890457	719.5999756
1331.4269	722.2000122
1331.963286	717.0
1332.499617	717.7999878
1333.035891	721.2000122
1333.572109	719.7999878
1334.108271	723.0
1334.644377	721.5999756
1335.180427	719.0
1335.71642	725.7999878
1336.252358	720.7999878
1336.78824	724.2000122
1337.324065	715.5999756
1337.859834	721.0
1338.395548	723.2000122
1338.931205	720.4000244
1339.466806	730.4000244
1340.002351	716.0
1340.537841	718.0
1341.073274	722.7999878
1341.608651	720.4000244
1342.143972	718.0
1342.679236	723.2000122
1343.214445	718.2000122
1343.749598	721.4000244
1344.284695	727.0
1344.819736	723.2000122
1345.354721	720.4000244
1345.88965	720.2000122
1346.424522	722.7999878
1346.959339	724.2000122
1347.4941	719.7999878
1348.028805	718.2000122
1348.563453	717.2000122
1349.098046	713.7999878
1349.632583	718.2000122
1350.167064	721.4000244
1350.701489	719.5999756
1351.235858	717.0
1351.770171	722.2000122
1352.304428	718.7999878
1352.838629	722.5999756
1353.372774	718.7999878
1353.906863	719.4000244
1354.440896	715.4000244
1354.974873	716.0
1355.508794	720.5999756
1356.04266	714.7999878
1356.576469	721.0
1357.110222	717.0
1357.64392	713.4000244
1358.177561	720.2000122
1358.711147	721.0
1359.244677	719.0
1359.778151	720.4000244
1360.311569	715.2000122
1360.844931	719.4000244
1361.378237	721.7999878
1361.911487	718.5999756
1362.444682	720.0
1362.97782	718.0
1363.510903	721.2000122
1364.043929	715.0
1364.5769	718.2000122
1365.109815	723.4000244
1365.642674	721.2000122
1366.175478	719.5999756
1366.708225	720.4000244
1367.240917	712.7999878
1367.773552	720.5999756
1368.306132	719.4000244
1368.838656	719.5999756
1369.371124	722.0
1369.903537	728.0
1370.435893	737.7999878
1370.968194	724.2000122
1371.500439	722.2000122
1372.032628	716.0
1372.564761	720.5999756
1373.096838	716.4000244
1373.62886	717.0
1374.160826	716.2000122
1374.692736	717.2000122
1375.22459	718.4000244
1375.756388	716.0
1376.288131	717.2000122
1376.819818	720.7999878
1377.351449	721.2000122
1377.883024	720.0
1378.414544	721.5999756
1378.946008	715.7999878
1379.477416	721.5999756
1380.008768	721.4000244
1380.540064	719.7999878
1381.071305	723.0
1381.60249	718.5999756
1382.133619	724.4000244
1382.664693	718.5999756
1383.195711	727.5999756
1383.726673	721.5999756
1384.257579	729.7999878
1384.78843	727.2000122
1385.319224	733.2000122
1385.849964	735.2000122
1386.380647	747.2000122
1386.911275	761.5999756
1387.441847	815.5999756
1387.972363	1093.400024
1388.502824	1733.800049
1389.033229	1335.0
1389.563578	853.0
1390.093872	758.4000244
1390.62411	740.7999878
1391.154292	731.7999878
1391.684419	728.4000244
1392.214489	725.7999878
1392.744505	728.7999878
1393.274464	722.4000244
1393.804368	722.0
1394.334216	723.5999756
1394.864009	723.5999756
1395.393746	722.4000244
1395.923427	720.2000122
1396.453053	722.7999878
1396.982623	719.7999878
1397.512138	716.0
1398.041597	718.2000122
1398.571	714.4000244
1399.100347	716.5999756
1399.629639	716.5999756
1400.158876	714.7999878
1400.688056	719.5999756
1401.217182	721.4000244
1401.746251	713.7999878
1402.275265	717.5999756
1402.804224	717.4000244
1403.333126	713.7999878
1403.861974	715.7999878
1404.390765	717.2000122
1404.919501	724.4000244
1405.448182	716.0
1405.976807	721.0
1406.505376	721.2000122
1407.03389	719.4000244
1407.562349	720.2000122
1408.090751	723.0
1408.619098	726.2000122
1409.14739	744.0
1409.675626	783.4000244
1410.203807	784.0
1410.731932	750.4000244
1411.260001	726.0
1411.788015	718.0
1412.315974	720.5999756
1412.843877	713.4000244
1413.371725	713.4000244
1413.899516	723.7999878
1414.427253	714.5999756
1414.954934	716.5999756
1415.482559	725.0
1416.010129	716.7999878
1416.537644	715.2000122
1417.065103	715.2000122
1417.592507	716.0
1418.119855	717.5999756
1418.647147	720.4000244
1419.174385	715.5999756
1419.701566	716.2000122
1420.228692	715.0
1420.755763	714.4000244
1421.282779	716.5999756
1421.809739	719.2000122
1422.336643	719.5999756
1422.863492	710.5999756
1423.390286	716.4000244
1423.917024	717.2000122
1424.443707	717.0
1424.970334	717.7999878
1425.496906	716.5999756
1426.023422	719.0
1426.549883	713.4000244
1427.076289	716.4000244
1427.602639	720.2000122
1428.128934	713.5999756
1428.655174	714.5999756
1429.181358	717.0
1429.707486	711.7999878
1430.23356	712.2000122
1430.759578	715.7999878
1431.28554	715.5999756
1431.811448	716.5999756
1432.337299	713.5999756
1432.863096	713.0
1433.388837	713.0
1433.914523	714.5999756
1434.440153	710.7999878
1434.965728	708.0
1435.491248	714.2000122
1436.016712	713.2000122
1436.542122	712.0
1437.067475	712.5999756
1437.592774	716.2000122
1438.118017	717.0
1438.643205	716.2000122
1439.168337	710.7999878
1439.693414	718.0
1440.218436	709.0
1440.743403	715.2000122
1441.268314	710.4000244
1441.79317	709.0
1442.31797	715.2000122
1442.842716	714.0
1443.367406	714.4000244
1443.892041	714.2000122
1444.41662	713.2000122
1444.941145	710.2000122
1445.465614	716.4000244
1445.990027	709.2000122
1446.514386	709.2000122
1447.038689	712.4000244
1447.562937	711.0
1448.08713	712.7999878
1448.611267	715.0
1449.13535	714.2000122
1449.659377	712.2000122
1450.183348	710.4000244
1450.707265	715.7999878
1451.231126	709.5999756
1451.754932	710.0
1452.278683	706.7999878
1452.802379	708.0
1453.32602	709.0
1453.849605	708.4000244
1454.373135	713.5999756
1454.89661	712.7999878
1455.42003	709.4000244
1455.943394	712.4000244
1456.466703	709.5999756
1456.989958	707.4000244
1457.513157	713.2000122
1458.0363	712.0
1458.559389	702.7999878
1459.082423	709.5999756
1459.605401	709.7999878
1460.128324	708.7999878
1460.651192	713.4000244
1461.174005	713.2000122
1461.696763	711.2000122
1462.219465	713.2000122
1462.742113	712.4000244
1463.264705	710.2000122
1463.787242	711.0
1464.309724	713.4000244
1464.832151	711.4000244
1465.354523	708.4000244
1465.87684	710.5999756
1466.399102	707.2000122
1466.921308	712.2000122
1467.443459	710.5999756
1467.965556	713.2000122
1468.487597	710.4000244
1469.009583	713.2000122
1469.531514	709.4000244
1470.05339	710.7999878
1470.575211	707.5999756
1471.096977	707.4000244
1471.618688	711.7999878
1472.140343	712.5999756
1472.661944	706.2000122
1473.18349	707.2000122
1473.70498	710.4000244
1474.226416	708.5999756
1474.747796	710.5999756
1475.269122	710.5999756
1475.790392	706.2000122
1476.311607	709.0
1476.832768	712.4000244
1477.353873	707.2000122
1477.874923	707.5999756
1478.395918	709.2000122
1478.916859	711.5999756
1479.437744	707.4000244
1479.958574	713.4000244
1480.479349	707.2000122
1481.00007	713.7999878
1482.041345	710.5999756
1482.5619	711.4000244
1483.082401	710.0
1483.602846	708.5999756
1484.123236	709.0
1484.643572	709.0
1485.163852	707.7999878
1485.684077	711.4000244
1486.204248	706.5999756
1486.724363	710.0
1487.244424	708.2000122
1487.76443	707.7999878
1488.28438	711.2000122
1488.804276	707.7999878
1489.324117	709.4000244
1489.843903	710.7999878
1490.363634	707.5999756
1490.88331	706.7999878
1491.402931	706.2000122
1491.922497	708.5999756
1492.442008	707.4000244
1492.961465	709.4000244
1493.480866	707.4000244
1494.000213	711.5999756
1494.519505	709.0
1495.038741	704.0
1495.557923	705.4000244
1496.07705	707.2000122
1496.596122	709.0
1497.11514	708.2000122
1497.634102	706.7999878
1498.15301	709.5999756
1498.671862	704.7999878
1499.19066	708.5999756
1499.709403	714.0
1500.228091	707.4000244
1500.746725	705.4000244
1501.265303	709.5999756
1501.783827	702.4000244
1502.302296	707.4000244
1502.820709	710.4000244
1503.339069	713.7999878
1503.857373	708.4000244
1504.375622	712.4000244
1504.893817	704.0
1505.411957	710.4000244
1505.930042	703.5999756
1506.448072	704.2000122
1506.966048	706.7999878
1507.483968	704.7999878
1508.001834	705.0
1508.519645	705.0
1509.037401	705.0
1509.555103	706.4000244
1510.07275	702.0
1510.590342	716.7999878
1511.107879	711.2000122
1511.625361	714.4000244
1512.142789	704.0
1512.660162	704.5999756
1513.17748	700.5999756
1513.694743	709.5999756
1514.211952	706.4000244
1514.729106	706.0
1515.246205	703.2000122
1515.76325	709.7999878
1516.280239	707.2000122
1516.797174	707.7999878
1517.314055	704.4000244
1517.83088	707.0
1518.347651	708.0
1518.864367	705.7999878
1519.381029	712.5999756
1519.897635	707.7999878
1520.414187	707.0
1520.930685	707.5999756
1521.447127	707.5999756
1521.963515	707.0
1522.479849	710.2000122
1522.996127	705.4000244
1523.512351	708.5999756
1524.028521	704.4000244
1524.544635	707.4000244
1525.060695	705.4000244
1525.576701	703.0
1526.092651	709.4000244
1526.608547	705.4000244
1527.124389	705.0
1527.640175	708.0
1528.155907	705.0
1528.671585	702.7999878
1529.187208	710.2000122
1529.702776	707.5999756
1530.218289	705.2000122
1530.733748	706.7999878
1531.249153	709.0
1531.764502	703.2000122
1532.279798	707.2000122
1532.795038	703.7999878
1533.310224	707.0
1533.825355	704.4000244
1534.340432	707.2000122
1534.855454	705.0
1535.370422	703.7999878
1535.885335	705.5999756
1536.400193	702.4000244
1536.914997	707.0
1537.429746	705.7999878
1537.944441	704.5999756
1538.459081	703.2000122
1538.973667	702.4000244
1539.488198	706.5999756
1540.002674	703.5999756
1540.517096	706.4000244
1541.031464	707.4000244
1541.545777	706.7999878
1542.060035	707.2000122
1542.574239	705.7999878
1543.088388	705.4000244
1543.602483	705.4000244
1544.116523	704.4000244
1544.630509	709.7999878
1545.14444	705.0
1545.658317	703.2000122
1546.172139	706.5999756
1546.685907	704.5999756
1547.19962	708.2000122
1547.713279	706.2000122
1548.226883	707.0
1548.740433	704.5999756
1549.253929	704.2000122
1549.76737	703.4000244
1550.280756	704.4000244
1550.794088	704.7999878
1551.307365	703.5999756
1551.820588	707.2000122
1552.333757	702.0
1552.846871	704.5999756
1553.359931	705.2000122
1553.872936	705.7999878
1554.385887	706.2000122
1554.898783	703.0
1555.411625	706.4000244
1555.924413	701.2000122
1556.437146	704.5999756
1556.949824	702.5999756
1557.462449	705.2000122
1557.975019	701.0
1558.487534	704.2000122
1558.999995	701.4000244
1559.512402	701.2000122
1560.024754	707.5999756
1560.537052	704.7999878
1561.049295	707.4000244
1561.561485	706.7999878
1562.073619	708.4000244
1562.5857	702.5999756
1563.097726	706.7999878
1563.609697	706.7999878
1564.121615	703.5999756
1564.633477	706.4000244
1565.145286	706.4000244
1565.65704	705.2000122
1566.16874	700.7999878
1566.680386	702.4000244
1567.191977	705.0
1567.703514	705.4000244
1568.214996	707.7999878
1568.726424	704.0
1569.237798	710.4000244
1569.749118	703.7999878
1570.260383	708.4000244
1570.771594	709.2000122
1571.28275	702.7999878
1571.793853	705.2000122
1572.304901	703.4000244
1572.815895	706.4000244
1573.326834	704.0
1573.837719	705.0
1574.34855	703.0
1574.859327	701.2000122
1575.370049	703.7999878
1575.880717	704.5999756
1576.391331	700.2000122
1576.90189	707.5999756
1577.412395	707.5999756
1577.922846	705.7999878
1578.433243	705.7999878
1578.943586	706.0
1579.453874	704.2000122
1579.964108	706.0
1580.474288	703.5999756
1580.984413	698.7999878
1581.494484	705.5999756
1582.004501	703.4000244
1582.514464	702.0
1583.024373	704.7999878
1583.534227	705.7999878
1584.044028	703.5999756
1584.553774	705.4000244
1585.063465	709.0
1585.573103	703.4000244
1586.082687	703.0
1586.592216	702.7999878
1587.101691	706.7999878
1587.611112	704.4000244
1588.120478	701.2000122
1588.629791	703.5999756
1589.139049	702.0
1589.648253	699.4000244
1590.157403	706.4000244
1590.666499	703.7999878
1591.175541	701.7999878
1591.684529	699.5999756
1592.193462	703.5999756
