1042.545976	835.4000244
1043.112314	836.0
1043.678594	830.4000244
1044.244816	835.7999878
1044.810979	833.4000244
1045.377084	832.4000244
1045.943132	829.7999878
1046.509121	829.5999756
1047.075052	830.0
1047.640924	819.7999878
1048.206739	831.0
1048.772495	823.0
1049.338193	826.7999878
1049.903833	825.2000122
1050.469415	825.4000244
1051.034939	822.2000122
1051.600404	828.5999756
1052.165811	826.5999756
1052.731161	826.2000122
1053.296452	821.4000244
1053.861685	819.5999756
1054.426859	823.5999756
1054.991976	823.7999878
1055.557035	823.4000244
1056.122035	822.2000122
1056.686978	826.7999878
1057.251862	825.4000244
1057.816688	825.0
1058.381456	822.0
1058.946166	822.0
1059.510818	813.2000122
1060.075411	816.7999878
1060.639947	817.2000122
1061.204425	817.0
1061.768844	825.4000244
1062.333206	814.7999878
1062.897509	814.5999756
1063.461754	823.0
1064.025942	821.2000122
1064.590071	819.2000122
1065.154142	821.4000244
1065.718155	818.0
1066.28211	814.4000244
1066.846007	821.7999878
1067.409846	824.2000122
1067.973627	815.2000122
1068.53735	820.0
1069.101014	820.7999878
1069.664621	821.7999878
1070.22817	815.5999756
1070.791661	819.7999878
1071.355094	813.5999756
1071.918469	817.5999756
1072.481785	819.7999878
1073.045044	819.4000244
1073.608245	807.4000244
1074.171388	811.7999878
1074.734473	808.0
1075.297499	814.7999878
1075.860468	813.5999756
1076.423379	808.4000244
1076.986232	817.7999878
1077.549027	818.4000244
1078.111764	817.7999878
1078.674443	814.4000244
1079.237064	815.5999756
1079.799627	818.2000122
1080.362132	814.5999756
1080.92458	815.4000244
1081.486969	808.0
1082.0493	811.2000122
1082.611574	817.2000122
1083.173789	810.4000244
1083.735947	814.2000122
1084.298047	816.5999756
1084.860088	813.2000122
1085.422072	812.0
1085.983998	816.2000122
1086.545866	811.7999878
1087.107677	807.0
1087.669429	807.5999756
1088.231123	814.4000244
1088.79276	811.0
1089.354338	810.2000122
1089.915859	807.4000244
1090.477322	808.2000122
1091.038727	818.0
1091.600074	806.2000122
1092.161363	804.0
1092.722595	814.5999756
1093.283768	809.7999878
1093.844884	816.0
1094.405942	813.7999878
1094.966942	808.7999878
1095.527884	809.2000122
1096.088768	806.2000122
1096.649595	809.4000244
1097.210364	813.5999756
1097.771074	816.4000244
1098.331728	807.4000244
1098.892323	811.7999878
1099.45286	803.7999878
1100.01334	812.0
1100.573762	805.2000122
1101.134126	807.4000244
1101.694432	808.0
1102.25468	807.5999756
1102.814871	803.5999756
1103.375004	805.2000122
1103.935079	805.2000122
1104.495096	805.0
1105.055056	799.7999878
1105.614958	807.2000122
1106.174802	804.5999756
1106.734588	804.2000122
1107.294317	800.7999878
1107.853987	807.4000244
1108.4136	806.0
1108.973156	800.5999756
1109.532653	808.0
1110.092093	802.2000122
1110.651475	808.7999878
1111.2108	803.5999756
1111.770066	802.4000244
1112.329275	800.5999756
1112.888426	798.5999756
1113.44752	805.0
1114.006556	806.2000122
1114.565534	801.4000244
1115.124454	798.7999878
1115.683317	802.4000244
1116.242122	801.4000244
1116.800869	808.4000244
1117.359559	813.7999878
1117.918191	798.2000122
1118.476765	801.4000244
1119.035282	800.7999878
1119.593741	801.4000244
1120.152142	801.7999878
1120.710486	796.2000122
1121.268772	800.4000244
1121.827	802.0
1122.385171	796.7999878
1122.943284	798.7999878
1123.50134	800.5999756
1124.059337	793.7999878
1124.617277	799.2000122
1125.17516	801.0
1125.732985	796.4000244
1126.290752	807.0
1126.848462	802.0
1127.406114	804.4000244
1127.963709	798.0
1128.521245	805.5999756
1129.078725	802.7999878
1129.636146	800.4000244
1130.193511	798.5999756
1130.750817	797.2000122
1131.308066	804.0
1131.865257	795.4000244
1132.422391	805.0
1132.979467	801.5999756
1133.536486	799.5999756
1134.093447	797.2000122
1134.650351	799.0
1135.207197	796.5999756
1135.763985	797.2000122
1136.320716	798.7999878
1136.877389	798.2000122
1137.434005	798.5999756
1137.990563	800.4000244
1138.547064	796.4000244
1139.103507	799.7999878
1139.659893	799.7999878
1140.216221	797.0
1140.772492	801.4000244
1141.328705	805.7999878
1141.884861	803.7999878
1142.440959	803.2000122
1142.997	803.0
1143.552983	806.2000122
1144.108908	798.7999878
1144.664777	802.0
1145.220587	799.5999756
1145.776341	796.5999756
1146.332036	800.5999756
1146.887675	801.5999756
1147.443256	806.0
1147.998779	800.4000244
1148.554245	798.5999756
1149.109653	804.5999756
1149.665004	809.2000122
1150.220298	826.0
1150.775534	859.2000122
1151.330713	825.0
1151.885834	811.7999878
1152.440898	798.7999878
1152.995904	798.2000122
1153.550853	799.0
1154.105745	796.2000122
1154.660579	799.4000244
1155.215356	801.2000122
1155.770075	796.0
1156.324737	795.2000122
1156.879341	796.5999756
1157.433889	791.7999878
1157.988378	800.0
1158.542811	797.2000122
1159.097186	800.4000244
1159.651503	798.0
1160.205764	802.4000244
1160.759966	803.4000244
1161.314112	795.2000122
1161.8682	797.7999878
1162.422231	796.7999878
1162.976204	794.0
1163.53012	796.5999756
1164.083979	802.4000244
1164.637781	798.4000244
1165.191525	797.2000122
1165.745211	798.5999756
1166.298841	792.4000244
1166.852413	795.0
1167.405928	799.2000122
1167.959385	799.0
1168.512785	794.4000244
1169.066128	803.5999756
1169.619413	790.5999756
1170.172642	799.2000122
1170.725813	797.7999878
1171.278926	794.4000244
1171.831983	793.4000244
1172.384982	799.5999756
1172.937923	795.5999756
1173.490808	795.5999756
1174.043635	797.2000122
1174.596405	795.0
1175.149118	790.7999878
1175.701773	796.5999756
1176.254371	795.2000122
1176.806912	794.5999756
1177.359396	788.5999756
1177.911822	797.2000122
1178.464192	796.5999756
1179.016503	790.7999878
1179.568758	792.0
1180.120956	796.4000244
1180.673096	792.4000244
1181.225179	791.7999878
1181.777205	792.0
1182.329173	800.5999756
1182.881085	790.4000244
1183.432939	796.7999878
1183.984736	793.5999756
1184.536476	795.2000122
1185.088158	788.7999878
1185.639784	793.5999756
1186.191352	789.2000122
1186.742863	792.7999878
1187.294317	786.0
1187.845713	791.5999756
1188.397053	797.4000244
1188.948335	790.0
1189.499561	790.0
1190.050729	792.5999756
1190.601839	788.2000122
1191.152893	790.2000122
1191.70389	792.0
1192.254829	797.4000244
1192.805712	795.2000122
1193.356537	811.0
1193.907305	793.5999756
1194.458016	789.5999756
1195.00867	787.5999756
1195.559266	790.2000122
1196.109806	780.7999878
1196.660288	791.0
1197.210714	790.5999756
1197.761082	791.5999756
1198.311393	790.0
1198.861647	792.4000244
1199.411844	799.0
1199.961984	790.2000122
1200.512067	791.7999878
1201.062092	788.5999756
1201.612061	787.4000244
1202.161973	784.2000122
1202.711827	789.2000122
1203.261625	787.2000122
1203.811365	792.7999878
1204.361048	788.7999878
1204.910675	784.2000122
1205.460244	788.4000244
1206.009756	786.2000122
1206.559211	783.5999756
1207.10861	792.2000122
1207.657951	796.0
1208.207235	791.7999878
1208.756462	793.0
1209.305632	786.2000122
1209.854745	789.7999878
1210.403801	790.5999756
1210.9528	786.4000244
1211.501742	785.4000244
1212.050627	789.0
1212.599455	786.0
1213.148226	791.5999756
1213.69694	788.0
1214.245597	788.2000122
1214.794197	793.4000244
1215.34274	789.2000122
1215.891227	795.5999756
1216.439656	791.5999756
1216.988028	787.0
1217.536343	789.2000122
1218.084602	788.2000122
1218.632803	790.2000122
1219.180947	788.0
1219.729035	789.4000244
1220.277065	791.7999878
1220.825039	782.0
1221.372956	789.7999878
1221.920815	790.2000122
1222.468618	786.7999878
1223.016364	787.0
1223.564053	782.2000122
1224.111685	790.7999878
1224.65926	791.2000122
1225.206779	782.5999756
1225.75424	783.0
1226.301645	786.0
1226.848992	784.7999878
1227.396283	785.4000244
1227.943517	784.0
1228.490694	783.0
1229.037814	790.0
1229.584877	787.2000122
1230.131883	782.4000244
1230.678833	785.4000244
1231.225725	782.2000122
1231.772561	786.0
1232.31934	784.5999756
1232.866062	791.2000122
1233.412727	789.5999756
1233.959336	788.4000244
1234.505887	785.5999756
1235.052382	789.0
1235.59882	788.7999878
1236.145201	783.5999756
1236.691525	788.0
1237.237793	792.5999756
1237.784003	783.7999878
1238.330157	785.0
1238.876254	788.2000122
1239.422295	782.4000244
1239.968278	779.5999756
1240.514205	781.5999756
1241.060074	782.0
1241.605888	777.5999756
1242.151644	785.5999756
1242.697343	781.2000122
1243.242986	781.4000244
1243.788572	779.2000122
1244.334101	788.2000122
1244.879574	786.4000244
1245.42499	782.2000122
1245.970349	785.4000244
1246.515651	780.5999756
1247.060896	779.7999878
1247.606085	781.2000122
1248.151217	787.4000244
1248.696292	784.5999756
1249.241311	783.5999756
1249.786273	782.5999756
1250.331178	782.4000244
1250.876026	780.5999756
1251.420818	785.0
1251.965553	781.0
1252.510231	778.5999756
1253.054853	785.2000122
1253.599418	780.5999756
1254.143926	781.0
1254.688377	783.5999756
1255.232772	783.0
1255.77711	786.2000122
1256.321392	789.0
1256.865617	783.0
1257.409785	783.0
1257.953896	785.5999756
1258.497951	785.2000122
1259.041949	781.7999878
1259.585891	783.7999878
1260.129776	787.0
1260.673604	778.5999756
1261.217375	785.5999756
1261.76109	778.7999878
1262.304749	782.2000122
1262.84835	781.2000122
1263.391896	788.0
1263.935384	782.5999756
1264.478816	796.0
1265.022191	796.0
1265.56551	789.7999878
1266.108772	784.0
1266.651977	784.5999756
1267.195126	775.7999878
1267.738218	780.7999878
1268.281254	780.2000122
1268.824233	783.4000244
1269.367155	781.2000122
1269.910021	775.7999878
1270.452831	778.7999878
1270.995583	779.4000244
1271.53828	773.5999756
1272.080919	783.4000244
1272.623502	783.4000244
1273.166029	781.2000122
1273.708499	783.2000122
1274.250912	778.4000244
1274.793269	779.7999878
1275.33557	776.4000244
1275.877814	779.5999756
1276.420001	783.5999756
1276.962132	780.5999756
1277.504206	780.4000244
1278.046224	776.2000122
1278.588185	781.7999878
1279.13009	783.5999756
1279.671938	793.7999878
1280.21373	787.2000122
1280.755465	783.4000244
1281.297144	776.5999756
1281.838766	781.5999756
1282.380332	785.5999756
1282.921841	791.7999878
1283.463294	795.7999878
1284.004691	804.2000122
1284.546031	858.4000244
1285.087314	983.7999878
1285.628541	973.0
1286.169711	836.5999756
1286.710826	793.7999878
1287.251883	781.4000244
1287.792884	783.5999756
1288.333829	784.5999756
1288.874717	776.4000244
1289.415549	779.5999756
1289.956325	776.5999756
1290.497044	775.4000244
1291.037706	773.7999878
1291.578313	779.4000244
1292.118862	779.0
1292.659356	783.2000122
1293.199793	778.0
1293.740173	777.0
1294.280498	769.5999756
1294.820765	773.5999756
1295.360977	777.4000244
1295.901132	784.5999756
1296.44123	776.5999756
1296.981273	776.7999878
1297.521259	770.7999878
1298.061188	774.2000122
1298.601061	776.0
1299.140878	774.4000244
1299.680639	776.7999878
1300.220343	781.0
1300.75999	774.5999756
1301.299582	781.4000244
1301.839117	772.4000244
1302.378596	771.0
1302.918018	778.0
1303.457384	774.5999756
1303.996694	774.4000244
1304.535947	780.0
1305.075145	769.5999756
1305.614285	772.7999878
1306.15337	773.7999878
1306.692398	782.4000244
1307.23137	773.0
1307.770286	772.4000244
1308.309145	771.7999878
1308.847948	771.5999756
1309.386695	771.2000122
1309.925385	779.4000244
1310.464019	776.7999878
1311.002597	779.7999878
1311.541119	774.0
1312.079584	771.5999756
1312.617993	779.0
1313.156346	774.7999878
1313.694643	775.4000244
1314.232883	771.0
1314.771067	775.7999878
1315.309195	775.0
1315.847267	775.4000244
1316.385282	773.7999878
1316.923241	774.2000122
1317.461144	768.4000244
1317.998991	774.4000244
1318.536782	770.4000244
1319.074516	771.0
1319.612194	774.0
1320.149816	770.5999756
1320.687382	773.7999878
1321.224891	774.2000122
1321.762344	773.4000244
1322.299742	771.5999756
1322.837083	772.2000122
1323.374367	777.5999756
1323.911596	772.4000244
1324.448768	772.5999756
1324.985885	773.5999756
1325.522945	775.4000244
1326.059949	774.0
1326.596896	772.4000244
1327.133788	770.7999878
1327.670623	770.4000244
1328.207403	770.2000122
1328.744126	771.4000244
1329.280793	773.2000122
1329.817404	769.5999756
1330.353959	777.2000122
1330.890457	772.5999756
1331.4269	767.2000122
1331.963286	773.7999878
1332.499617	772.5999756
1333.035891	766.2000122
1333.572109	776.0
1334.108271	777.0
1334.644377	766.4000244
1335.180427	772.5999756
1335.71642	780.0
1336.252358	772.4000244
1336.78824	771.5999756
1337.324065	769.5999756
1337.859834	770.4000244
1338.395548	771.4000244
1338.931205	771.7999878
1339.466806	772.0
1340.002351	768.5999756
1340.537841	767.2000122
1341.073274	765.7999878
1341.608651	772.4000244
1342.143972	776.0
1342.679236	777.7999878
1343.214445	768.4000244
1343.749598	764.5999756
1344.284695	771.7999878
1344.819736	768.7999878
1345.354721	763.7999878
1345.88965	772.2000122
1346.424522	774.2000122
1346.959339	772.0
1347.4941	774.0
1348.028805	768.0
1348.563453	769.0
1349.098046	769.7999878
1349.632583	773.5999756
1350.167064	766.5999756
1350.701489	770.0
1351.235858	769.7999878
1351.770171	772.4000244
1352.304428	766.2000122
1352.838629	763.2000122
1353.372774	774.4000244
1353.906863	778.4000244
1354.440896	771.2000122
1354.974873	766.2000122
1355.508794	773.4000244
1356.04266	769.2000122
1356.576469	766.4000244
1357.110222	765.5999756
1357.64392	770.0
1358.177561	771.4000244
1358.711147	770.2000122
1359.244677	772.0
1359.778151	773.4000244
1360.311569	770.5999756
1360.844931	766.4000244
1361.378237	760.0
1361.911487	766.4000244
1362.444682	770.2000122
1362.97782	765.2000122
1363.510903	772.5999756
1364.043929	766.2000122
1364.5769	767.4000244
1365.109815	764.4000244
1365.642674	768.5999756
1366.175478	761.5999756
1366.708225	767.0
1367.240917	765.7999878
1367.773552	770.4000244
1368.306132	767.4000244
1368.838656	765.0
1369.371124	766.4000244
1369.903537	769.2000122
1370.435893	776.7999878
1370.968194	768.4000244
1371.500439	766.4000244
1372.032628	767.2000122
1372.564761	772.5999756
1373.096838	766.7999878
1373.62886	772.2000122
1374.160826	761.0
1374.692736	765.5999756
1375.22459	772.4000244
1375.756388	765.7999878
1376.288131	767.0
1376.819818	767.7999878
1377.351449	769.2000122
1377.883024	766.0
1378.414544	765.0
1378.946008	771.7999878
1379.477416	762.0
1380.008768	773.5999756
1380.540064	767.0
1381.071305	769.7999878
1381.60249	766.0
1382.133619	767.7999878
1382.664693	770.5999756
1383.195711	769.5999756
1383.726673	764.5999756
1384.257579	767.5999756
1384.78843	766.2000122
1385.319224	769.7999878
1385.849964	774.7999878
1386.380647	774.2000122
1386.911275	784.7999878
1387.441847	807.7999878
1387.972363	936.2000122
1388.502824	1192.800049
1389.033229	1010.400024
1389.563578	817.2000122
1390.093872	784.0
1390.62411	775.5999756
1391.154292	776.0
1391.684419	769.5999756
1392.214489	767.5999756
1392.744505	773.5999756
1393.274464	770.0
1393.804368	771.2000122
1394.334216	766.0
1394.864009	759.7999878
1395.393746	763.5999756
1395.923427	771.7999878
1396.453053	769.7999878
1396.982623	759.7999878
1397.512138	762.2000122
1398.041597	764.4000244
1398.571	765.7999878
1399.100347	771.4000244
1399.629639	767.5999756
1400.158876	768.7999878
1400.688056	769.0
1401.217182	759.0
1401.746251	764.7999878
1402.275265	763.5999756
1402.804224	770.5999756
1403.333126	762.5999756
1403.861974	764.7999878
1404.390765	767.2000122
1404.919501	767.7999878
1405.448182	765.5999756
1405.976807	767.5999756
1406.505376	769.4000244
1407.03389	763.7999878
1407.562349	770.5999756
1408.090751	768.7999878
1408.619098	773.7999878
1409.14739	772.4000244
1409.675626	788.5999756
1410.203807	785.5999756
1410.731932	780.2000122
1411.260001	767.7999878
1411.788015	767.4000244
1412.315974	765.4000244
1412.843877	769.4000244
1413.371725	767.7999878
1413.899516	762.5999756
1414.427253	758.2000122
1414.954934	766.7999878
1415.482559	773.0
1416.010129	763.2000122
1416.537644	761.0
1417.065103	758.4000244
1417.592507	761.4000244
1418.119855	768.2000122
1418.647147	762.4000244
1419.174385	762.0
1419.701566	757.2000122
1420.228692	759.0
1420.755763	765.2000122
1421.282779	764.7999878
1421.809739	763.0
1422.336643	761.4000244
1422.863492	763.0
1423.390286	763.0
1423.917024	763.7999878
1424.443707	759.2000122
1424.970334	769.2000122
1425.496906	759.5999756
1426.023422	769.4000244
1426.549883	761.5999756
1427.076289	759.2000122
1427.602639	760.0
1428.128934	766.7999878
1428.655174	760.0
1429.181358	761.4000244
1429.707486	760.0
1430.23356	761.0
1430.759578	766.0
1431.28554	756.7999878
1431.811448	761.7999878
1432.337299	761.0
1432.863096	756.2000122
1433.388837	762.0
1433.914523	760.0
1434.440153	757.0
1434.965728	763.5999756
1435.491248	756.7999878
1436.016712	761.7999878
1436.542122	761.7999878
1437.067475	763.7999878
1437.592774	756.0
1438.118017	764.2000122
1438.643205	757.4000244
1439.168337	755.2000122
1439.693414	762.7999878
1440.218436	759.0
1440.743403	759.5999756
1441.268314	757.5999756
1441.79317	760.4000244
1442.31797	760.5999756
1442.842716	764.2000122
1443.367406	758.2000122
1443.892041	759.7999878
1444.41662	764.7999878
1444.941145	762.7999878
1445.465614	759.5999756
1445.990027	756.0
1446.514386	762.7999878
1447.038689	762.0
1447.562937	759.5999756
1448.611267	763.7999878
1449.13535	759.4000244
1449.659377	759.4000244
1450.183348	758.0
1450.707265	763.0
1451.231126	760.5999756
1451.754932	761.5999756
1452.278683	754.4000244
1452.802379	759.0
1453.32602	763.5999756
1453.849605	756.7999878
1454.373135	757.4000244
1454.89661	754.2000122
1455.42003	759.0
1455.943394	756.7999878
1456.466703	756.4000244
1456.989958	761.0
1457.513157	754.5999756
1458.0363	758.5999756
1458.559389	758.4000244
1459.082423	760.7999878
1459.605401	764.0
1460.128324	752.2000122
1460.651192	752.7999878
1461.174005	759.4000244
1461.696763	757.2000122
1462.219465	759.2000122
1462.742113	755.4000244
1463.264705	756.2000122
1463.787242	760.7999878
1464.309724	764.4000244
1464.832151	756.5999756
1465.354523	754.7999878
1465.87684	759.7999878
1466.399102	758.5999756
1466.921308	757.4000244
1467.443459	755.4000244
1467.965556	752.4000244
1468.487597	757.5999756
1469.009583	756.7999878
1469.531514	762.4000244
1470.05339	753.0
1470.575211	759.4000244
1471.096977	755.7999878
1471.618688	760.5999756
1472.140343	758.2000122
1472.661944	754.7999878
1473.18349	753.4000244
1473.70498	757.7999878
1474.226416	756.2000122
1474.747796	758.2000122
1475.269122	754.7999878
1475.790392	751.7999878
1476.311607	750.0
1476.832768	750.5999756
1477.353873	752.4000244
1477.874923	753.0
1478.395918	754.4000244
1478.916859	757.4000244
1479.437744	755.4000244
1479.958574	754.0
1480.479349	757.2000122
1481.00007	756.7999878
1481.520735	752.2000122
1482.041345	753.2000122
1482.5619	755.4000244
1483.082401	761.2000122
1483.602846	754.4000244
1484.123236	754.5999756
1484.643572	755.5999756
1485.163852	760.2000122
1485.684077	759.0
1486.204248	753.2000122
1486.724363	754.0
1487.244424	755.2000122
1487.76443	759.7999878
1488.28438	755.4000244
1488.804276	751.2000122
1489.324117	752.0
1489.843903	757.5999756
1490.363634	755.4000244
1490.88331	749.0
1491.402931	753.7999878
1491.922497	754.4000244
1492.442008	755.2000122
1492.961465	755.7999878
1493.480866	757.0
1494.000213	757.5999756
1494.519505	750.2000122
1495.038741	753.0
1495.557923	753.2000122
1496.07705	755.5999756
1496.596122	748.2000122
1497.11514	753.5999756
1497.634102	753.2000122
1498.15301	758.5999756
1498.671862	752.4000244
1499.19066	750.5999756
1499.709403	767.2000122
1500.228091	755.2000122
1500.746725	749.4000244
1501.265303	756.4000244
1501.783827	756.5999756
1502.302296	756.0
1502.820709	757.2000122
1503.339069	756.5999756
1503.857373	749.2000122
1504.375622	752.0
1504.893817	750.2000122
1505.411957	755.7999878
1505.930042	756.0
1506.448072	756.2000122
1506.966048	749.4000244
1507.483968	749.7999878
1508.001834	751.2000122
1508.519645	756.2000122
1509.037401	749.7999878
1509.555103	746.5999756
1510.07275	756.5999756
1510.590342	762.2000122
1511.107879	745.2000122
1511.625361	747.0
1512.142789	752.0
1512.660162	754.5999756
1513.17748	753.7999878
1513.694743	754.0
1514.211952	753.0
1514.729106	753.2000122
1515.246205	750.5999756
1515.76325	750.5999756
1516.280239	750.5999756
1516.797174	748.4000244
1517.314055	751.0
1517.83088	752.4000244
1518.347651	755.7999878
1518.864367	750.4000244
1519.381029	753.7999878
1519.897635	749.7999878
1520.414187	745.5999756
1520.930685	745.4000244
1521.447127	750.0
1521.963515	754.2000122
1522.479849	747.0
1522.996127	752.0
1523.512351	750.2000122
1524.028521	751.2000122
1524.544635	745.7999878
1525.060695	752.2000122
1525.576701	756.5999756
1526.092651	754.5999756
1526.608547	748.4000244
1527.124389	753.5999756
1527.640175	750.4000244
1528.155907	748.7999878
1528.671585	748.4000244
1529.187208	743.7999878
1529.702776	755.7999878
1530.218289	748.4000244
1530.733748	750.2000122
1531.249153	745.7999878
1531.764502	747.5999756
1532.279798	748.0
1532.795038	745.4000244
1533.310224	752.5999756
1533.825355	751.4000244
1534.340432	749.5999756
1534.855454	757.5999756
1535.370422	759.0
1535.885335	753.0
1536.400193	749.0
1536.914997	750.7999878
1537.429746	746.5999756
1537.944441	756.2000122
1538.459081	752.0
1538.973667	745.0
1539.488198	749.2000122
1540.002674	758.0
1540.517096	755.2000122
1541.031464	753.0
1541.545777	750.4000244
1542.060035	752.7999878
1542.574239	752.5999756
1543.088388	756.2000122
1543.602483	751.7999878
1544.116523	751.7999878
1544.630509	752.7999878
1545.14444	750.5999756
1545.658317	750.0
1546.172139	752.5999756
1546.685907	749.4000244
1547.19962	753.7999878
1547.713279	751.2000122
1548.226883	759.0
1548.740433	750.5999756
1549.253929	751.4000244
1549.76737	752.2000122
1550.280756	749.7999878
1550.794088	753.4000244
1551.307365	747.2000122
1551.820588	750.0
1552.333757	749.7999878
1552.846871	747.0
1553.359931	749.0
1553.872936	747.7999878
1554.385887	748.2000122
1554.898783	746.5999756
1555.411625	751.2000122
1555.924413	746.4000244
1556.437146	751.2000122
1556.949824	752.4000244
1557.462449	756.7999878
1557.975019	744.7999878
1558.487534	753.7999878
1558.999995	753.5999756
1559.512402	750.7999878
1560.024754	745.5999756
1560.537052	753.0
1561.049295	750.0
1561.561485	751.2000122
1562.073619	748.4000244
1562.5857	747.5999756
1563.097726	750.7999878
1563.609697	752.0
1564.121615	746.7999878
1564.633477	747.2000122
1565.145286	746.4000244
1565.65704	754.2000122
1566.16874	749.7999878
1566.680386	749.5999756
1567.191977	751.4000244
1567.703514	747.4000244
1568.214996	746.4000244
1568.726424	752.0
1569.237798	745.5999756
1569.749118	748.7999878
1570.260383	746.7999878
1570.771594	745.7999878
1571.28275	745.5999756
1571.793853	746.7999878
1572.304901	748.4000244
1572.815895	747.2000122
1573.326834	753.0
1573.837719	746.5999756
1574.34855	747.4000244
1574.859327	750.4000244
1575.370049	751.0
1575.880717	748.7999878
1576.391331	749.2000122
1576.90189	741.4000244
1577.412395	742.4000244
1577.922846	749.7999878
1578.433243	753.5999756
1578.943586	747.4000244
1579.453874	747.4000244
1579.964108	751.7999878
1580.474288	745.0
1580.984413	748.5999756
1581.494484	745.2000122
1582.004501	754.4000244
1582.514464	748.4000244
1583.024373	754.0
1583.534227	746.4000244
1584.044028	747.7999878
1584.553774	748.7999878
1585.063465	745.7999878
1585.573103	746.7999878
1586.082687	748.2000122
1586.592216	747.2000122
1587.101691	749.2000122
1587.611112	751.0
1588.120478	751.0
1588.629791	740.5999756
1589.139049	750.5999756
1589.648253	746.4000244
1590.157403	745.2000122
1590.666499	745.7999878
1591.175541	747.4000244
1591.684529	747.4000244
1592.193462	744.7999878
