1042.545976	1342.199951
1043.112314	1350.800049
1043.678594	1337.199951
1044.244816	1335.599976
1044.810979	1346.400024
1045.377084	1333.800049
1045.943132	1323.400024
1046.509121	1338.800049
1047.075052	1324.800049
1047.640924	1329.400024
1048.206739	1332.599976
1048.772495	1329.400024
1049.338193	1339.0
1049.903833	1334.0
1050.469415	1314.199951
1051.034939	1336.599976
1051.600404	1326.800049
1052.165811	1325.599976
1052.731161	1323.199951
1053.296452	1324.400024
1053.861685	1314.400024
1054.426859	1317.199951
1054.991976	1324.199951
1055.557035	1316.400024
1056.122035	1298.0
1056.686978	1313.599976
1057.251862	1308.0
1057.816688	1318.599976
1058.381456	1320.199951
1058.946166	1321.400024
1059.510818	1326.199951
1060.075411	1310.599976
1060.639947	1304.0
1061.204425	1306.199951
1061.768844	1303.400024
1062.333206	1315.199951
1062.897509	1308.800049
1063.461754	1317.199951
1064.025942	1311.599976
1064.590071	1306.199951
1065.154142	1321.800049
1065.718155	1302.400024
1066.28211	1318.0
1066.846007	1321.800049
1067.409846	1309.199951
1067.973627	1322.800049
1068.53735	1311.0
1069.101014	1299.400024
1069.664621	1309.599976
1070.22817	1307.400024
1070.791661	1285.199951
1071.355094	1319.0
1071.918469	1304.400024
1072.481785	1290.400024
1073.045044	1305.0
1073.608245	1298.599976
1074.171388	1302.400024
1074.734473	1306.400024
1075.297499	1315.800049
1075.860468	1291.800049
1076.423379	1291.800049
1076.986232	1292.0
1077.549027	1292.599976
1078.111764	1300.0
1078.674443	1301.400024
1079.237064	1297.599976
1079.799627	1292.599976
1080.362132	1299.400024
1080.92458	1287.0
1081.486969	1280.199951
1082.0493	1290.400024
1082.611574	1289.199951
1083.173789	1304.199951
1083.735947	1293.0
1084.298047	1301.199951
1084.860088	1293.800049
1085.422072	1275.400024
1085.983998	1294.0
1086.545866	1281.400024
1087.107677	1287.599976
1087.669429	1296.0
1088.231123	1280.400024
1088.79276	1281.800049
1089.354338	1275.400024
1089.915859	1280.800049
1090.477322	1275.800049
1091.038727	1278.0
1091.600074	1288.800049
1092.161363	1282.400024
1092.722595	1295.0
1093.283768	1281.400024
1093.844884	1277.0
1094.405942	1279.400024
1094.966942	1272.0
1095.527884	1269.0
1096.088768	1274.599976
1096.649595	1270.800049
1097.210364	1279.0
1097.771074	1265.800049
1098.331728	1272.400024
1098.892323	1256.199951
1099.45286	1270.599976
1100.01334	1263.0
1100.573762	1265.199951
1101.134126	1267.199951
1101.694432	1263.199951
1102.25468	1278.599976
1102.814871	1256.199951
1103.375004	1260.0
1103.935079	1252.400024
1104.495096	1254.800049
1105.055056	1254.800049
1105.614958	1245.199951
1106.174802	1272.599976
1106.734588	1262.0
1107.294317	1247.199951
1107.853987	1260.599976
1108.4136	1250.199951
1108.973156	1263.599976
1109.532653	1250.800049
1110.092093	1240.800049
1110.651475	1251.800049
1111.2108	1253.599976
1111.770066	1260.400024
1112.329275	1246.400024
1112.888426	1249.599976
1113.44752	1256.199951
1114.006556	1254.0
1114.565534	1260.0
1115.124454	1244.599976
1115.683317	1245.599976
1116.242122	1245.599976
1116.800869	1258.400024
1117.359559	1250.400024
1117.918191	1239.199951
1118.476765	1249.199951
1119.035282	1239.400024
1119.593741	1240.800049
1120.152142	1239.599976
1120.710486	1259.199951
1121.268772	1254.0
1121.827	1235.400024
1122.385171	1238.199951
1122.943284	1248.599976
1123.50134	1247.599976
1124.059337	1238.199951
1124.617277	1236.800049
1125.17516	1240.0
1125.732985	1237.0
1126.290752	1237.800049
1126.848462	1235.400024
1127.406114	1232.400024
1127.963709	1232.400024
1128.521245	1237.800049
1129.078725	1231.400024
1129.636146	1236.599976
1130.193511	1236.599976
1130.750817	1231.400024
1131.308066	1230.199951
1131.865257	1235.0
1132.422391	1238.199951
1132.979467	1244.599976
1133.536486	1234.800049
1134.093447	1240.599976
1134.650351	1233.400024
1135.207197	1232.400024
1135.763985	1233.800049
1136.320716	1225.400024
1136.877389	1225.599976
1137.434005	1229.400024
1137.990563	1230.0
1138.547064	1234.800049
1139.103507	1239.400024
1139.659893	1244.0
1140.216221	1223.199951
1140.772492	1228.400024
1141.328705	1231.0
1141.884861	1234.599976
1142.440959	1226.199951
1142.997	1230.800049
1143.552983	1234.400024
1144.108908	1235.800049
1144.664777	1226.199951
1145.220587	1242.199951
1145.776341	1222.199951
1146.332036	1241.400024
1146.887675	1230.599976
1147.443256	1230.599976
1147.998779	1229.800049
1148.554245	1229.599976
1149.109653	1240.599976
1149.665004	1230.400024
1150.220298	1234.599976
1150.775534	1230.199951
1151.330713	1232.599976
1151.885834	1241.800049
1152.440898	1231.0
1152.995904	1225.599976
1153.550853	1232.199951
1154.105745	1224.599976
1154.660579	1238.0
1155.215356	1215.599976
1155.770075	1232.800049
1156.324737	1239.0
1156.879341	1233.599976
1157.433889	1237.400024
1157.988378	1227.400024
1158.542811	1226.199951
1159.097186	1229.400024
1159.651503	1222.800049
1160.205764	1227.599976
1160.759966	1226.199951
1161.314112	1221.0
1161.8682	1222.199951
1162.422231	1221.0
1162.976204	1244.199951
1163.53012	1234.599976
1164.083979	1233.199951
1164.637781	1232.400024
1165.191525	1227.599976
1165.745211	1235.599976
1166.298841	1212.800049
1166.852413	1218.400024
1167.405928	1231.599976
1167.959385	1222.599976
1168.512785	1231.0
1169.066128	1229.199951
1169.619413	1223.0
1170.172642	1228.199951
1170.725813	1226.199951
1171.278926	1213.800049
1171.831983	1229.599976
1172.384982	1221.800049
1172.937923	1226.599976
1173.490808	1229.800049
1174.043635	1215.199951
1174.596405	1213.400024
1175.149118	1201.400024
1175.701773	1217.400024
1176.254371	1225.400024
1176.806912	1227.199951
1177.359396	1205.400024
1177.911822	1222.0
1178.464192	1228.400024
1179.016503	1207.800049
1179.568758	1217.400024
1180.120956	1219.400024
1180.673096	1220.400024
1181.225179	1210.0
1181.777205	1206.599976
1182.329173	1211.800049
1182.881085	1215.599976
1183.432939	1214.199951
1183.984736	1222.400024
1184.536476	1219.599976
1185.088158	1220.400024
1185.639784	1214.199951
1186.191352	1214.199951
1186.742863	1214.400024
1187.294317	1219.199951
1187.845713	1209.599976
1188.397053	1212.800049
1188.948335	1207.199951
1189.499561	1206.199951
1190.050729	1201.199951
1190.601839	1196.400024
1191.152893	1218.400024
1191.70389	1214.199951
1192.254829	1211.400024
1192.805712	1207.599976
1193.356537	1223.599976
1193.907305	1203.199951
1194.458016	1213.199951
1195.00867	1201.400024
1195.559266	1201.400024
1196.109806	1217.400024
1196.660288	1196.0
1197.210714	1207.199951
1197.761082	1202.199951
1198.311393	1205.199951
1198.861647	1197.400024
1199.411844	1207.599976
1199.961984	1207.0
1200.512067	1209.599976
1201.062092	1187.599976
1201.612061	1200.599976
1202.161973	1205.400024
1202.711827	1199.0
1203.261625	1192.599976
1203.811365	1198.400024
1204.361048	1190.800049
1204.910675	1207.0
1205.460244	1206.599976
1206.009756	1203.800049
1206.559211	1198.599976
1207.10861	1200.199951
1207.657951	1204.800049
1208.207235	1189.599976
1208.756462	1193.0
1209.305632	1193.800049
1209.854745	1204.199951
1210.403801	1175.800049
1210.9528	1185.0
1211.501742	1192.599976
1212.050627	1187.800049
1212.599455	1192.800049
1213.148226	1203.0
1213.69694	1202.599976
1214.245597	1182.0
1214.794197	1191.400024
1215.34274	1198.599976
1215.891227	1197.0
1216.439656	1190.400024
1216.988028	1194.599976
1217.536343	1179.800049
1218.084602	1176.400024
1218.632803	1187.400024
1219.180947	1176.0
1219.729035	1186.400024
1220.277065	1183.599976
1220.825039	1179.199951
1221.372956	1194.0
1221.920815	1190.0
1222.468618	1187.199951
1223.016364	1194.800049
1223.564053	1190.0
1224.111685	1180.199951
1224.65926	1185.400024
1225.206779	1178.0
1225.75424	1186.199951
1226.301645	1178.800049
1226.848992	1184.599976
1227.396283	1179.599976
1227.943517	1168.800049
1228.490694	1195.0
1229.037814	1190.0
1229.584877	1172.599976
1230.131883	1169.199951
1230.678833	1184.800049
1231.225725	1175.599976
1231.772561	1181.0
1232.31934	1182.199951
1232.866062	1173.0
1233.412727	1187.800049
1233.959336	1174.800049
1234.505887	1162.400024
1235.052382	1172.400024
1235.59882	1168.800049
1236.145201	1183.400024
1236.691525	1174.400024
1237.237793	1174.0
1237.784003	1180.199951
1238.330157	1182.400024
1238.876254	1183.0
1239.422295	1190.800049
1239.968278	1188.0
1240.514205	1182.0
1241.060074	1165.400024
1241.605888	1187.0
1242.151644	1174.599976
1242.697343	1179.199951
1243.242986	1175.0
1243.788572	1173.199951
1244.334101	1175.599976
1244.879574	1174.0
1245.42499	1170.199951
1245.970349	1166.800049
1246.515651	1173.599976
1247.060896	1182.199951
1247.606085	1179.199951
1248.151217	1170.599976
1248.696292	1178.199951
1249.241311	1174.599976
1249.786273	1180.599976
1250.331178	1177.199951
1250.876026	1176.800049
1251.420818	1163.599976
1251.965553	1178.0
1252.510231	1165.400024
1253.054853	1172.599976
1253.599418	1169.199951
1254.143926	1182.0
1254.688377	1171.599976
1255.232772	1174.400024
1255.77711	1157.599976
1256.321392	1171.199951
1256.865617	1158.199951
1257.409785	1168.400024
1257.953896	1161.599976
1258.497951	1165.800049
1259.041949	1186.800049
1259.585891	1168.800049
1260.129776	1179.800049
1260.673604	1177.599976
1261.217375	1170.800049
1261.76109	1162.0
1262.304749	1165.199951
1262.84835	1172.599976
1263.391896	1184.800049
1263.935384	1193.199951
1264.478816	1214.199951
1265.022191	1225.0
1265.56551	1227.400024
1266.108772	1199.800049
1266.651977	1182.800049
1267.195126	1168.400024
1267.738218	1170.400024
1268.281254	1165.599976
1268.824233	1171.0
1269.367155	1152.599976
1269.910021	1170.400024
1270.452831	1173.199951
1270.995583	1157.599976
1271.53828	1166.599976
1272.080919	1166.800049
1272.623502	1166.199951
1273.166029	1173.400024
1273.708499	1178.400024
1274.250912	1168.400024
1274.793269	1158.199951
1275.33557	1154.800049
1275.877814	1161.0
1276.420001	1155.800049
1276.962132	1164.400024
1277.504206	1166.599976
1278.046224	1166.199951
1278.588185	1159.199951
1279.13009	1159.599976
1279.671938	1181.199951
1280.21373	1164.0
1280.755465	1170.0
1281.297144	1155.400024
1281.838766	1164.0
1282.380332	1162.599976
1282.921841	1181.0
1283.463294	1202.199951
1284.004691	1247.400024
1284.546031	1421.0
1285.087314	2003.800049
1285.628541	2144.800049
1286.169711	1475.800049
1286.710826	1237.400024
1287.251883	1200.800049
1287.792884	1174.599976
1288.333829	1170.199951
1288.874717	1171.400024
1289.415549	1170.599976
1289.956325	1157.800049
1290.497044	1151.800049
1291.037706	1166.800049
1291.578313	1160.0
1292.118862	1160.199951
1292.659356	1159.0
1293.199793	1152.0
1293.740173	1152.800049
1294.280498	1152.199951
1294.820765	1158.400024
1295.360977	1155.400024
1295.901132	1141.800049
1296.44123	1149.199951
1296.981273	1151.0
1297.521259	1149.400024
1298.061188	1142.599976
1298.601061	1149.0
1299.140878	1149.800049
1299.680639	1151.199951
1300.220343	1145.199951
1300.75999	1150.800049
1301.299582	1155.800049
1301.839117	1152.599976
1302.378596	1139.0
1302.918018	1152.800049
1303.457384	1145.0
1303.996694	1134.599976
1304.535947	1146.800049
1305.075145	1148.400024
1305.614285	1151.199951
1306.15337	1127.599976
1306.692398	1127.800049
1307.23137	1146.0
1307.770286	1149.599976
1308.309145	1132.599976
1308.847948	1145.199951
1309.386695	1144.400024
1309.925385	1144.599976
1310.464019	1142.800049
1311.002597	1135.800049
1311.541119	1125.400024
1312.079584	1144.400024
1312.617993	1136.400024
1313.156346	1136.800049
1313.694643	1134.599976
1314.232883	1129.599976
1314.771067	1144.199951
1315.309195	1135.400024
1315.847267	1128.400024
1316.385282	1123.599976
1316.923241	1140.800049
1317.461144	1129.199951
1317.998991	1126.199951
1318.536782	1134.800049
1319.074516	1129.800049
1319.612194	1121.199951
1320.149816	1143.800049
1320.687382	1146.199951
1321.224891	1128.599976
1321.762344	1134.800049
1322.299742	1134.400024
1322.837083	1131.0
1323.374367	1127.199951
1323.911596	1136.199951
1324.448768	1136.199951
1324.985885	1129.400024
1325.522945	1131.400024
1326.059949	1131.0
1326.596896	1135.0
1327.133788	1120.800049
1327.670623	1122.199951
1328.207403	1126.0
1328.744126	1125.199951
1329.280793	1127.0
1329.817404	1121.400024
1330.353959	1120.599976
1330.890457	1127.0
1331.4269	1134.199951
1331.963286	1113.800049
1332.499617	1129.199951
1333.035891	1116.800049
1333.572109	1124.599976
1334.108271	1120.400024
1334.644377	1126.0
1335.180427	1118.400024
1335.71642	1127.199951
1336.252358	1119.0
1336.78824	1118.599976
1337.324065	1127.800049
1337.859834	1119.0
1338.395548	1116.599976
1338.931205	1121.0
1339.466806	1117.599976
1340.002351	1107.0
1340.537841	1117.800049
1341.073274	1116.599976
1341.608651	1117.400024
1342.143972	1115.800049
1342.679236	1113.199951
1343.214445	1126.0
1343.749598	1121.599976
1344.284695	1111.0
1344.819736	1114.800049
1345.354721	1116.0
1345.88965	1122.400024
1346.424522	1120.800049
1346.959339	1109.599976
1347.4941	1113.400024
1348.028805	1121.400024
1348.563453	1118.0
1349.098046	1113.800049
1349.632583	1116.400024
1350.167064	1107.599976
1350.701489	1117.599976
1351.235858	1103.800049
1351.770171	1117.599976
1352.304428	1114.400024
1352.838629	1101.800049
1353.906863	1102.0
1354.440896	1121.0
1354.974873	1114.599976
1355.508794	1106.599976
1356.04266	1121.199951
1356.576469	1113.199951
1357.110222	1112.800049
1357.64392	1121.599976
1358.177561	1117.599976
1358.711147	1125.400024
1359.244677	1119.599976
1359.778151	1115.0
1360.311569	1105.599976
1360.844931	1117.599976
1361.378237	1101.199951
1361.911487	1110.400024
1362.444682	1103.0
1362.97782	1114.599976
1363.510903	1118.599976
1364.043929	1107.0
1364.5769	1105.400024
1365.109815	1111.400024
1365.642674	1110.800049
1366.175478	1112.800049
1366.708225	1109.599976
1367.240917	1107.800049
1367.773552	1100.599976
1368.306132	1105.599976
1368.838656	1109.599976
1369.371124	1107.400024
1369.903537	1132.199951
1370.435893	1135.800049
1370.968194	1129.199951
1371.500439	1111.800049
1372.032628	1104.800049
1372.564761	1098.800049
1373.096838	1108.199951
1373.62886	1111.400024
1374.160826	1108.800049
1374.692736	1102.0
1375.22459	1104.599976
1375.756388	1102.0
1376.288131	1105.400024
1376.819818	1097.0
1377.351449	1094.400024
1377.883024	1114.0
1378.414544	1099.599976
1378.946008	1109.599976
1379.477416	1106.400024
1380.008768	1109.599976
1380.540064	1100.0
1381.071305	1107.0
1381.60249	1109.800049
1382.133619	1107.0
1382.664693	1114.199951
1383.195711	1106.800049
1383.726673	1112.0
1384.257579	1111.0
1384.78843	1113.199951
1385.319224	1118.800049
1385.849964	1151.0
1386.380647	1135.400024
1386.911275	1168.199951
1387.441847	1243.599976
1387.972363	1685.0
1388.502824	2896.0
1389.033229	2292.199951
1389.563578	1353.199951
1390.093872	1161.800049
1390.62411	1134.800049
1391.154292	1126.0
1391.684419	1102.599976
1392.214489	1112.400024
1392.744505	1108.0
1393.274464	1108.0
1393.804368	1098.199951
1394.334216	1098.199951
1394.864009	1092.400024
1395.393746	1105.0
1395.923427	1102.0
1396.453053	1091.199951
1396.982623	1089.599976
1397.512138	1093.599976
1398.041597	1095.0
1398.571	1096.800049
1399.100347	1090.800049
1399.629639	1103.400024
1400.158876	1088.0
1400.688056	1093.400024
1401.217182	1087.800049
1401.746251	1102.800049
1402.275265	1085.800049
1402.804224	1104.800049
1403.333126	1099.800049
1403.861974	1106.800049
1404.390765	1087.199951
1404.919501	1095.400024
1405.448182	1085.0
1405.976807	1099.0
1406.505376	1103.0
1407.03389	1096.599976
1407.562349	1102.199951
1408.090751	1094.400024
1408.619098	1115.400024
1409.14739	1149.599976
1409.675626	1212.800049
1410.203807	1221.400024
1410.731932	1144.199951
1411.260001	1107.0
1411.788015	1115.599976
1412.315974	1098.199951
1412.843877	1088.800049
1413.371725	1090.800049
1413.899516	1096.400024
1414.427253	1088.400024
1414.954934	1087.199951
1415.482559	1093.199951
1416.010129	1089.0
1416.537644	1084.599976
1417.065103	1091.199951
1417.592507	1077.400024
1418.119855	1092.400024
1418.647147	1085.199951
1419.174385	1091.400024
1419.701566	1087.400024
1420.228692	1076.199951
1420.755763	1092.800049
1421.282779	1084.0
1421.809739	1082.0
1422.336643	1083.599976
1422.863492	1076.0
1423.390286	1087.400024
1423.917024	1078.199951
1424.443707	1097.599976
1424.970334	1082.199951
1425.496906	1083.199951
1426.023422	1080.400024
1426.549883	1076.599976
1427.076289	1079.599976
1427.602639	1087.800049
1428.128934	1087.199951
1428.655174	1082.599976
1429.181358	1078.0
1429.707486	1077.0
1430.23356	1077.800049
1430.759578	1079.599976
1431.28554	1084.400024
1431.811448	1083.599976
1432.337299	1071.599976
1432.863096	1080.0
1433.388837	1084.0
1433.914523	1075.0
1434.440153	1074.800049
1434.965728	1086.0
1435.491248	1074.400024
1436.016712	1083.0
1436.542122	1081.800049
1437.067475	1074.0
1437.592774	1084.599976
1438.118017	1080.199951
1438.643205	1076.0
1439.168337	1073.800049
1439.693414	1076.0
1440.218436	1070.199951
1440.743403	1072.599976
1441.268314	1070.400024
1441.79317	1072.800049
1442.31797	1081.400024
1442.842716	1069.599976
1443.367406	1072.0
1443.892041	1072.599976
1444.41662	1071.199951
1444.941145	1074.800049
1445.465614	1065.599976
1445.990027	1074.400024
1446.514386	1075.800049
1447.038689	1065.599976
1447.562937	1070.599976
1448.08713	1070.0
1448.611267	1067.400024
1449.13535	1076.400024
1449.659377	1066.400024
1450.183348	1065.400024
1450.707265	1073.199951
1451.231126	1070.0
1451.754932	1061.800049
1452.278683	1060.199951
1452.802379	1061.599976
1453.32602	1060.199951
1453.849605	1054.0
1454.373135	1069.0
1454.89661	1062.199951
1455.42003	1059.599976
1455.943394	1062.400024
1456.466703	1065.199951
1456.989958	1069.0
1457.513157	1061.599976
1458.0363	1065.400024
1458.559389	1074.0
1459.082423	1062.599976
1459.605401	1072.199951
1460.128324	1057.800049
1460.651192	1058.599976
1461.174005	1060.599976
1461.696763	1074.400024
1462.219465	1061.199951
1462.742113	1069.400024
1463.264705	1069.800049
1463.787242	1065.599976
1464.309724	1064.0
1464.832151	1052.800049
1465.354523	1061.199951
1465.87684	1053.599976
1466.399102	1060.599976
1466.921308	1064.0
1467.443459	1055.199951
1467.965556	1061.800049
1468.487597	1059.199951
1469.009583	1062.599976
1469.531514	1063.800049
1470.05339	1052.199951
1470.575211	1063.400024
1471.096977	1047.599976
1471.618688	1058.800049
1472.140343	1060.599976
1472.661944	1058.800049
1473.18349	1061.199951
1473.70498	1058.599976
1474.226416	1059.800049
1474.747796	1062.800049
1475.269122	1071.0
1475.790392	1062.0
1476.311607	1059.199951
1476.832768	1065.800049
1477.353873	1051.599976
1477.874923	1054.400024
1478.395918	1058.400024
1478.916859	1061.0
1479.437744	1041.800049
1479.958574	1044.599976
1480.479349	1045.599976
1481.00007	1054.0
1481.520735	1071.199951
1482.041345	1047.599976
1482.5619	1054.199951
1483.082401	1043.400024
1483.602846	1048.199951
1484.123236	1046.0
1484.643572	1041.400024
1485.163852	1052.199951
1485.684077	1056.0
1486.204248	1052.199951
1486.724363	1055.599976
1487.244424	1047.800049
1487.76443	1045.0
1488.28438	1059.800049
1488.804276	1059.199951
1489.324117	1053.800049
1489.843903	1042.199951
1490.363634	1048.199951
1490.88331	1057.0
1491.402931	1052.400024
1491.922497	1052.400024
1492.442008	1036.599976
1492.961465	1059.599976
1493.480866	1050.0
1494.000213	1051.599976
1494.519505	1031.800049
1495.038741	1041.800049
1495.557923	1057.400024
1496.07705	1048.800049
1496.596122	1049.599976
1497.11514	1046.800049
1497.634102	1046.199951
1498.15301	1044.199951
1498.671862	1051.199951
1499.19066	1040.199951
1499.709403	1055.0
1500.228091	1051.800049
1500.746725	1056.800049
1501.265303	1044.0
1501.783827	1048.199951
1502.302296	1048.800049
1502.820709	1045.800049
1503.339069	1033.800049
1503.857373	1047.0
1504.375622	1039.0
1504.893817	1037.800049
1505.411957	1047.199951
1505.930042	1043.599976
1506.448072	1040.0
1506.966048	1038.0
1507.483968	1039.599976
1508.001834	1034.400024
1508.519645	1041.0
1509.037401	1037.0
1509.555103	1042.800049
1510.07275	1037.800049
1510.590342	1044.800049
1511.107879	1040.0
1511.625361	1037.199951
1512.142789	1036.0
1512.660162	1044.599976
1513.17748	1035.599976
1513.694743	1037.199951
1514.211952	1045.0
1514.729106	1050.400024
1515.246205	1037.599976
1515.76325	1036.599976
1516.280239	1035.400024
1516.797174	1034.199951
1517.314055	1035.400024
1517.83088	1042.0
1518.347651	1045.199951
1518.864367	1038.0
1519.381029	1034.800049
1519.897635	1040.800049
1520.414187	1041.0
1520.930685	1040.199951
1521.447127	1034.800049
1521.963515	1029.199951
1522.479849	1036.800049
1522.996127	1032.800049
1523.512351	1033.199951
1524.028521	1033.599976
1524.544635	1042.199951
1525.060695	1040.800049
1525.576701	1034.599976
1526.092651	1038.400024
1526.608547	1041.0
1527.124389	1033.599976
1527.640175	1029.199951
1528.155907	1043.400024
1528.671585	1036.199951
1529.187208	1035.400024
1529.702776	1033.199951
1530.218289	1036.800049
1530.733748	1040.199951
1531.249153	1036.400024
1531.764502	1035.199951
1532.279798	1034.599976
1532.795038	1034.800049
1533.310224	1040.199951
1533.825355	1034.400024
1534.340432	1036.599976
1534.855454	1033.0
1535.370422	1029.400024
1535.885335	1030.0
1536.400193	1033.0
1536.914997	1026.199951
1537.429746	1031.400024
1537.944441	1032.199951
1538.459081	1033.400024
1538.973667	1027.0
1539.488198	1024.199951
1540.002674	1026.0
1540.517096	1029.599976
1541.031464	1021.799988
1541.545777	1034.599976
1542.060035	1016.599976
1542.574239	1029.199951
1543.088388	1032.199951
1543.602483	1027.599976
1544.116523	1041.599976
1544.630509	1034.599976
1545.14444	1030.800049
1545.658317	1032.400024
1546.172139	1022.400024
1546.685907	1027.400024
1547.19962	1035.400024
1547.713279	1034.400024
1548.226883	1024.0
1548.740433	1029.0
1549.253929	1034.400024
1549.76737	1022.400024
1550.280756	1025.800049
1550.794088	1036.0
1551.307365	1020.400024
1551.820588	1024.400024
1552.333757	1026.0
1552.846871	1017.599976
1553.359931	1021.0
1553.872936	1025.400024
1554.385887	1027.800049
1554.898783	1015.799988
1555.411625	1030.400024
1555.924413	1018.599976
1556.437146	1018.599976
1556.949824	1029.0
1557.462449	1017.799988
1557.975019	1013.799988
1558.487534	1025.199951
1558.999995	1028.800049
1559.512402	1013.599976
1560.024754	1013.200012
1560.537052	1020.0
1561.561485	1022.400024
1562.073619	1026.400024
1562.5857	1028.800049
1563.097726	1025.800049
1563.609697	1029.599976
1564.121615	1028.199951
1564.633477	1024.0
1565.145286	1031.0
1565.65704	1018.200012
1566.16874	1019.200012
1566.680386	1032.400024
1567.191977	1020.599976
1567.703514	1020.200012
1568.214996	1019.599976
1568.726424	1033.800049
1569.237798	1024.599976
1569.749118	1021.0
1570.260383	1027.599976
1570.771594	1027.199951
1571.28275	1018.799988
1571.793853	1033.400024
1572.304901	1025.800049
1572.815895	1021.599976
1573.326834	1027.599976
1573.837719	1022.200012
1574.34855	1013.0
1574.859327	1020.799988
1575.370049	1020.799988
1575.880717	1036.199951
1576.391331	1021.799988
1576.90189	1025.400024
1577.412395	1014.599976
1577.922846	1008.400024
1578.433243	1025.0
1578.943586	1040.0
1579.453874	1019.799988
1579.964108	1032.0
1580.474288	1017.599976
1580.984413	1015.400024
1581.494484	1018.400024
1582.004501	1020.200012
1582.514464	1029.400024
1583.024373	1021.0
1583.534227	1019.400024
1584.044028	1020.599976
1584.553774	1025.199951
1585.063465	1018.799988
1585.573103	1015.400024
1586.082687	1021.599976
1586.592216	1016.0
1587.101691	1019.0
1587.611112	1029.199951
1588.120478	1024.400024
1588.629791	1016.200012
1589.139049	1022.799988
1589.648253	1016.0
1590.157403	1015.799988
1590.666499	1020.599976
1591.175541	1015.400024
1591.684529	1022.400024
