1042.545976	3167.800049
1043.112314	3179.199951
1043.678594	3154.0
1044.244816	3181.0
1044.810979	3154.800049
1045.377084	3141.600098
1045.943132	3153.0
1046.509121	3162.600098
1047.075052	3164.0
1047.640924	3147.399902
1048.206739	3155.199951
1048.772495	3154.0
1049.338193	3149.800049
1049.903833	3140.800049
1050.469415	3118.399902
1051.034939	3159.800049
1051.600404	3126.600098
1052.165811	3163.199951
1052.731161	3128.399902
1053.296452	3152.399902
1053.861685	3124.600098
1054.426859	3138.199951
1054.991976	3135.0
1055.557035	3143.800049
1056.122035	3097.600098
1056.686978	3130.0
1057.251862	3116.399902
1057.816688	3166.399902
1058.381456	3133.199951
1058.946166	3115.199951
1059.510818	3108.600098
1060.075411	3108.800049
1060.639947	3095.0
1061.204425	3108.800049
1061.768844	3118.399902
1062.333206	3105.800049
1062.897509	3114.399902
1063.461754	3103.399902
1064.025942	3097.399902
1064.590071	3111.600098
1065.154142	3112.800049
1065.718155	3102.800049
1066.28211	3112.0
1066.846007	3108.399902
1067.409846	3103.199951
1067.973627	3105.399902
1068.53735	3098.0
1069.101014	3093.800049
1069.664621	3104.0
1070.22817	3096.800049
1070.791661	3110.800049
1071.355094	3096.199951
1071.918469	3093.0
1072.481785	3085.600098
1073.045044	3092.399902
1073.608245	3086.399902
1074.171388	3110.800049
1074.734473	3082.199951
1075.297499	3068.800049
1075.860468	3084.0
1076.423379	3093.600098
1076.986232	3097.199951
1077.549027	3096.600098
1078.111764	3088.0
1078.674443	3056.0
1079.237064	3091.600098
1079.799627	3054.800049
1080.362132	3061.399902
1080.92458	3084.199951
1081.486969	3054.600098
1082.0493	3079.399902
1082.611574	3045.199951
1083.173789	3048.0
1083.735947	3049.199951
1084.298047	3048.600098
1084.860088	3066.600098
1085.422072	3051.0
1085.983998	3033.0
1086.545866	3047.399902
1087.107677	3034.0
1087.669429	3012.399902
1088.231123	3027.600098
1088.79276	3036.0
1089.354338	3039.0
1089.915859	3047.0
1090.477322	3020.600098
1091.038727	3045.199951
1091.600074	3007.600098
1092.161363	3052.199951
1092.722595	3042.399902
1093.283768	3050.800049
1093.844884	3030.600098
1094.405942	3033.399902
1094.966942	3023.600098
1095.527884	3042.600098
1096.088768	2987.800049
1096.649595	3011.0
1097.210364	2998.199951
1097.771074	3027.199951
1098.331728	3015.399902
1098.892323	3007.600098
1099.45286	3034.0
1100.01334	3027.600098
1100.573762	2997.600098
1101.134126	3013.399902
1101.694432	3015.0
1102.25468	3001.399902
1102.814871	2994.0
1103.375004	3018.0
1103.935079	2966.0
1104.495096	2996.600098
1105.055056	2962.399902
1105.614958	2965.800049
1106.174802	2974.800049
1106.734588	2963.399902
1107.294317	2978.199951
1107.853987	2955.399902
1108.4136	2982.0
1108.973156	2963.399902
1109.532653	2962.0
1110.092093	2961.199951
1110.651475	2930.800049
1111.2108	2959.399902
1111.770066	2961.199951
1112.329275	2975.800049
1112.888426	2939.0
1113.44752	2957.800049
1114.006556	2960.800049
1114.565534	2942.399902
1115.124454	2967.399902
1115.683317	2953.399902
1116.242122	2955.199951
1116.800869	2958.199951
1117.359559	2942.800049
1117.918191	2926.800049
1118.476765	2950.199951
1119.035282	2937.800049
1119.593741	2964.600098
1120.152142	2945.199951
1120.710486	2936.199951
1121.268772	2934.800049
1121.827	2918.0
1122.385171	2933.0
1122.943284	2931.800049
1123.50134	2945.600098
1124.059337	2965.399902
1124.617277	2926.600098
1125.17516	2936.600098
1125.732985	2927.199951
1126.290752	2914.800049
1126.848462	2921.600098
1127.406114	2923.199951
1127.963709	2939.0
1128.521245	2933.600098
1129.078725	2934.199951
1129.636146	2934.800049
1130.193511	2943.600098
1130.750817	2899.600098
1131.308066	2928.600098
1131.865257	2925.600098
1132.422391	2930.600098
1132.979467	2902.600098
1133.536486	2885.199951
1134.093447	2925.199951
1134.650351	2952.199951
1135.207197	2908.0
1135.763985	2916.800049
1136.320716	2916.399902
1136.877389	2904.199951
1137.434005	2937.199951
1137.990563	2932.600098
1138.547064	2918.600098
1139.103507	2931.399902
1139.659893	2920.0
1140.216221	2902.600098
1140.772492	2932.0
1141.328705	2922.199951
1141.884861	2934.199951
1142.440959	2903.0
1142.997	2936.399902
1143.552983	2918.199951
1144.108908	2916.800049
1144.664777	2894.800049
1145.220587	2941.800049
1145.776341	2903.399902
1146.332036	2923.600098
1146.887675	2901.199951
1147.443256	2934.600098
1147.998779	2913.600098
1148.554245	2917.199951
1149.109653	2932.199951
1149.665004	2903.800049
1150.220298	2919.199951
1150.775534	2947.800049
1151.330713	2914.800049
1151.885834	2896.0
1152.440898	2930.0
1152.995904	2910.399902
1153.550853	2925.199951
1154.105745	2923.800049
1154.660579	2906.199951
1155.215356	2919.399902
1155.770075	2922.600098
1156.324737	2919.800049
1156.879341	2926.800049
1157.433889	2947.399902
1157.988378	2899.800049
1158.542811	2925.0
1159.097186	2923.399902
1159.651503	2908.199951
1160.205764	2942.199951
1160.759966	2939.600098
1161.314112	2917.600098
1161.8682	2934.199951
1162.422231	2908.399902
1162.976204	2937.800049
1163.53012	2921.0
1164.083979	2921.0
1164.637781	2895.600098
1165.191525	2936.0
1165.745211	2902.0
1166.298841	2915.399902
1166.852413	2916.0
1167.405928	2921.800049
1167.959385	2906.0
1168.512785	2903.0
1169.066128	2912.199951
1169.619413	2903.399902
1170.172642	2903.399902
1170.725813	2884.600098
1171.278926	2893.199951
1171.831983	2908.199951
1172.384982	2907.0
1172.937923	2898.0
1173.490808	2904.600098
1174.043635	2892.0
1174.596405	2888.199951
1175.149118	2889.800049
1175.701773	2892.0
1176.254371	2897.199951
1176.806912	2888.600098
1177.359396	2899.399902
1177.911822	2910.800049
1178.464192	2907.800049
1179.016503	2909.800049
1179.568758	2864.600098
1180.120956	2871.0
1180.673096	2886.600098
1181.225179	2873.800049
1181.777205	2850.399902
1182.329173	2910.600098
1182.881085	2877.199951
1183.432939	2896.800049
1183.984736	2878.800049
1184.536476	2904.199951
1185.088158	2911.0
1185.639784	2904.399902
1186.191352	2863.199951
1186.742863	2880.399902
1187.294317	2881.0
1187.845713	2912.0
1188.397053	2882.800049
1188.948335	2845.399902
1189.499561	2880.399902
1190.050729	2868.199951
1190.601839	2863.600098
1191.152893	2832.800049
1191.70389	2873.199951
1192.254829	2873.0
1192.805712	2869.600098
1193.356537	2873.800049
1193.907305	2875.199951
1194.458016	2864.199951
1195.00867	2865.600098
1195.559266	2855.199951
1196.109806	2885.199951
1196.660288	2871.399902
1197.210714	2842.199951
1197.761082	2839.399902
1198.311393	2844.600098
1198.861647	2860.0
1199.411844	2862.399902
1199.961984	2850.399902
1200.512067	2842.199951
1201.062092	2877.199951
1201.612061	2868.199951
1202.161973	2855.800049
1202.711827	2840.800049
1203.261625	2846.399902
1203.811365	2856.800049
1204.361048	2842.199951
1204.910675	2822.199951
1205.460244	2856.199951
1206.009756	2855.399902
1206.559211	2846.800049
1207.10861	2835.600098
1207.657951	2844.199951
1208.207235	2835.399902
1208.756462	2840.800049
1209.305632	2830.399902
1209.854745	2837.800049
1210.403801	2828.399902
1210.9528	2833.399902
1211.501742	2842.0
1212.050627	2837.0
1212.599455	2830.0
1213.148226	2850.399902
1213.69694	2822.199951
1214.245597	2844.199951
1214.794197	2827.600098
1215.34274	2850.199951
1215.891227	2845.399902
1216.439656	2850.800049
1216.988028	2825.800049
1217.536343	2831.800049
1218.084602	2794.0
1218.632803	2818.399902
1219.180947	2820.399902
1219.729035	2807.399902
1220.277065	2825.600098
1220.825039	2841.800049
1221.372956	2824.600098
1221.920815	2821.0
1222.468618	2801.600098
1223.016364	2818.0
1223.564053	2821.0
1224.111685	2805.399902
1224.65926	2823.199951
1225.206779	2789.600098
1225.75424	2809.399902
1226.301645	2805.0
1226.848992	2816.800049
1227.396283	2794.399902
1227.943517	2827.0
1228.490694	2801.600098
1229.037814	2849.600098
1229.584877	2793.399902
1230.131883	2820.399902
1230.678833	2788.600098
1231.225725	2807.199951
1231.772561	2779.0
1232.31934	2821.199951
1232.866062	2795.199951
1233.412727	2780.800049
1233.959336	2788.399902
1234.505887	2774.600098
1235.052382	2814.399902
1235.59882	2786.399902
1236.145201	2798.199951
1236.691525	2801.600098
1237.237793	2799.399902
1237.784003	2811.199951
1238.330157	2783.0
1238.876254	2803.199951
1239.422295	2801.600098
1239.968278	2755.399902
1240.514205	2790.199951
1241.060074	2769.399902
1241.605888	2818.800049
1242.151644	2785.399902
1242.697343	2773.0
1243.242986	2789.0
1243.788572	2789.199951
1244.334101	2787.800049
1244.879574	2819.800049
1245.42499	2780.0
1245.970349	2783.600098
1246.515651	2781.800049
1247.060896	2795.199951
1247.606085	2765.600098
1248.151217	2776.399902
1248.696292	2780.600098
1249.241311	2790.800049
1249.786273	2762.199951
1250.331178	2805.199951
1250.876026	2767.399902
1251.420818	2801.800049
1251.965553	2769.399902
1252.510231	2783.800049
1253.054853	2769.600098
1253.599418	2787.800049
1254.143926	2772.0
1254.688377	2768.800049
1255.232772	2760.199951
1255.77711	2758.800049
1256.321392	2791.199951
1256.865617	2767.0
1257.409785	2776.399902
1257.953896	2764.600098
1258.497951	2790.800049
1259.041949	2766.0
1259.585891	2768.800049
1260.129776	2778.800049
1260.673604	2755.399902
1261.217375	2759.0
1261.76109	2788.600098
1262.304749	2775.199951
1262.84835	2768.600098
1263.391896	2750.399902
1263.935384	2786.0
1264.478816	2783.399902
1265.022191	2806.800049
1265.56551	2816.800049
1266.108772	2770.199951
1266.651977	2768.399902
1267.195126	2741.199951
1267.738218	2753.0
1268.281254	2750.199951
1268.824233	2764.600098
1269.367155	2747.199951
1269.910021	2759.399902
1270.452831	2761.199951
1270.995583	2740.199951
1271.53828	2751.600098
1272.080919	2743.199951
1272.623502	2766.600098
1273.166029	2754.0
1273.708499	2761.800049
1274.250912	2738.600098
1274.793269	2739.399902
1275.33557	2742.600098
1275.877814	2755.199951
1276.420001	2743.800049
1276.962132	2737.399902
1277.504206	2753.600098
1278.046224	2736.0
1278.588185	2722.800049
1279.13009	2742.399902
1279.671938	2735.600098
1280.21373	2740.600098
1280.755465	2763.600098
1281.297144	2732.199951
1281.838766	2750.600098
1282.380332	2736.399902
1282.921841	2767.800049
1283.463294	2800.800049
1284.004691	2836.399902
1284.546031	3043.600098
1285.087314	3597.0
1285.628541	3543.0
1286.169711	2970.199951
1286.710826	2779.199951
1287.251883	2771.199951
1287.792884	2747.199951
1288.333829	2712.800049
1288.874717	2747.800049
1289.415549	2735.0
1289.956325	2738.0
1290.497044	2722.399902
1291.037706	2697.399902
1291.578313	2685.399902
1292.118862	2713.800049
1292.659356	2712.399902
1293.199793	2724.800049
1293.740173	2689.600098
1294.280498	2707.0
1294.820765	2725.199951
1295.360977	2726.199951
1295.901132	2705.800049
1296.44123	2713.0
1296.981273	2724.199951
1297.521259	2700.800049
1298.061188	2723.800049
1298.601061	2737.800049
1299.140878	2707.0
1299.680639	2698.0
1300.220343	2724.800049
1300.75999	2692.800049
1301.299582	2720.399902
1301.839117	2691.800049
1302.378596	2690.399902
1302.918018	2690.0
1303.457384	2720.0
1303.996694	2700.199951
1304.535947	2729.0
1305.075145	2713.800049
1305.614285	2672.399902
1306.15337	2691.600098
1306.692398	2725.800049
1307.23137	2698.199951
1307.770286	2688.800049
1308.309145	2678.800049
1308.847948	2693.600098
1309.386695	2708.600098
1309.925385	2698.399902
1310.464019	2672.0
1311.002597	2702.600098
1311.541119	2679.600098
1312.079584	2674.0
1312.617993	2681.800049
1313.156346	2679.600098
1313.694643	2678.0
1314.232883	2674.199951
1314.771067	2697.199951
1315.309195	2669.600098
1315.847267	2699.199951
1316.385282	2649.0
1316.923241	2689.800049
1317.461144	2670.199951
1317.998991	2675.199951
1318.536782	2666.199951
1319.074516	2684.600098
1319.612194	2673.0
1320.149816	2664.399902
1320.687382	2676.600098
1321.224891	2694.600098
1321.762344	2660.199951
1322.299742	2659.199951
1322.837083	2680.600098
1323.374367	2678.199951
1323.911596	2662.600098
1324.448768	2663.800049
1324.985885	2662.600098
1325.522945	2669.199951
1326.059949	2667.600098
1326.596896	2648.600098
1327.133788	2661.600098
1327.670623	2659.800049
1328.207403	2646.399902
1328.744126	2648.399902
1329.280793	2674.199951
1329.817404	2666.199951
1330.353959	2673.600098
1330.890457	2661.199951
1331.4269	2691.800049
1331.963286	2644.399902
1332.499617	2636.600098
1333.035891	2648.800049
1333.572109	2648.600098
1334.108271	2635.600098
1334.644377	2635.399902
1335.180427	2613.199951
1335.71642	2641.199951
1336.252358	2622.0
1336.78824	2632.800049
1337.324065	2641.0
1337.859834	2648.600098
1338.395548	2649.800049
1338.931205	2646.800049
1339.466806	2641.800049
1340.002351	2640.800049
1340.537841	2650.600098
1341.073274	2645.399902
1341.608651	2631.0
1342.143972	2632.199951
1342.679236	2653.399902
1343.214445	2631.199951
1343.749598	2632.199951
1344.284695	2634.399902
1344.819736	2649.399902
1345.354721	2619.800049
1345.88965	2625.600098
1346.424522	2646.399902
1346.959339	2626.600098
1347.4941	2626.800049
1348.028805	2618.800049
1348.563453	2632.800049
1349.098046	2629.199951
1349.632583	2624.399902
1350.167064	2620.800049
1350.701489	2637.0
1351.235858	2620.600098
1351.770171	2618.199951
1352.304428	2609.199951
1352.838629	2641.800049
1353.372774	2610.600098
1353.906863	2624.199951
1354.440896	2609.800049
1354.974873	2600.399902
1355.508794	2604.199951
1356.04266	2611.399902
1356.576469	2617.0
1357.110222	2639.399902
1357.64392	2604.800049
1358.177561	2627.600098
1358.711147	2632.0
1359.244677	2582.0
1359.778151	2608.399902
1360.311569	2584.399902
1360.844931	2618.600098
1361.378237	2596.600098
1361.911487	2630.199951
1362.444682	2601.600098
1362.97782	2631.199951
1363.510903	2603.0
1364.043929	2575.800049
1364.5769	2611.199951
1365.109815	2601.0
1365.642674	2599.399902
1366.175478	2601.399902
1366.708225	2613.399902
1367.240917	2611.199951
1367.773552	2591.399902
1368.306132	2577.600098
1368.838656	2582.399902
1369.371124	2604.600098
1369.903537	2623.0
1370.435893	2618.0
1370.968194	2615.600098
1372.032628	2601.600098
1372.564761	2586.399902
1373.096838	2597.800049
1373.62886	2612.0
1374.160826	2590.800049
1374.692736	2589.600098
1375.22459	2564.399902
1375.756388	2590.199951
1376.288131	2595.600098
1376.819818	2607.800049
1377.351449	2558.800049
1377.883024	2590.399902
1378.414544	2565.600098
1378.946008	2603.0
1379.477416	2552.199951
1380.008768	2570.0
1380.540064	2575.600098
1381.071305	2576.199951
1381.60249	2587.600098
1382.133619	2577.800049
1382.664693	2587.399902
1383.195711	2589.800049
1383.726673	2610.199951
1384.257579	2586.199951
1384.78843	2591.0
1385.319224	2563.600098
1385.849964	2610.0
1386.380647	2588.600098
1386.911275	2651.0
1387.441847	2758.0
1387.972363	3246.199951
1388.502824	4242.799805
1389.033229	3572.399902
1389.563578	2791.399902
1390.093872	2649.800049
1390.62411	2580.600098
1391.154292	2606.600098
1391.684419	2574.0
1392.214489	2585.600098
1392.744505	2584.0
1393.274464	2589.199951
1393.804368	2577.399902
1394.334216	2563.399902
1394.864009	2568.800049
1395.393746	2543.800049
1395.923427	2585.800049
1396.453053	2551.199951
1396.982623	2589.0
1397.512138	2583.399902
1398.041597	2593.199951
1398.571	2546.600098
1399.100347	2551.600098
1399.629639	2590.399902
1400.158876	2552.600098
1400.688056	2565.199951
1401.217182	2547.800049
1401.746251	2576.0
1402.275265	2547.199951
1402.804224	2560.399902
1403.333126	2551.800049
1403.861974	2585.800049
1404.390765	2560.600098
1404.919501	2607.199951
1405.448182	2554.0
1405.976807	2554.600098
1406.505376	2574.0
1407.03389	2566.0
1407.562349	2545.800049
1408.090751	2583.600098
1408.619098	2573.800049
1409.14739	2597.800049
1409.675626	2656.399902
1410.203807	2657.600098
1410.731932	2600.600098
1411.260001	2582.0
1411.788015	2567.0
1412.315974	2543.600098
1412.843877	2543.800049
1413.371725	2559.600098
1413.899516	2544.600098
1414.427253	2567.600098
1414.954934	2563.600098
1415.482559	2543.800049
1416.010129	2546.600098
1416.537644	2533.600098
1417.065103	2529.399902
1417.592507	2553.399902
1418.119855	2535.0
1418.647147	2556.600098
1419.174385	2555.600098
1419.701566	2549.600098
1420.228692	2551.600098
1420.755763	2558.0
1421.282779	2547.199951
1421.809739	2564.0
1422.336643	2517.800049
1422.863492	2549.399902
1423.390286	2536.399902
1423.917024	2556.0
1424.443707	2545.199951
1424.970334	2538.399902
1425.496906	2537.0
1426.023422	2539.399902
1426.549883	2540.399902
1427.076289	2553.600098
1427.602639	2537.800049
1428.128934	2539.0
1428.655174	2553.399902
1429.181358	2533.399902
1429.707486	2538.0
1430.23356	2522.600098
1430.759578	2521.800049
1431.28554	2530.199951
1431.811448	2534.399902
1432.337299	2528.199951
1432.863096	2527.399902
1433.388837	2530.399902
1433.914523	2545.600098
1434.440153	2496.0
1434.965728	2516.600098
1435.491248	2521.399902
1436.016712	2521.199951
1436.542122	2527.399902
1437.067475	2529.399902
1437.592774	2526.399902
1438.118017	2508.199951
1438.643205	2511.600098
1439.168337	2520.0
1439.693414	2538.0
1440.218436	2509.199951
1440.743403	2528.199951
1441.268314	2491.0
1441.79317	2517.399902
1442.31797	2515.0
1442.842716	2520.800049
1443.367406	2521.0
1443.892041	2503.0
1444.41662	2529.199951
1444.941145	2491.399902
1445.465614	2487.399902
1445.990027	2507.600098
1446.514386	2518.399902
1447.038689	2496.0
1447.562937	2496.600098
1448.08713	2507.600098
1448.611267	2509.600098
1449.13535	2517.199951
1449.659377	2523.0
1450.183348	2508.800049
1450.707265	2521.199951
1451.231126	2494.600098
1451.754932	2505.0
1452.278683	2492.800049
1452.802379	2499.800049
1453.32602	2501.600098
1453.849605	2505.199951
1454.373135	2507.0
1454.89661	2484.199951
1455.42003	2509.199951
1455.943394	2509.800049
1456.466703	2486.399902
1456.989958	2494.600098
1457.513157	2516.199951
1458.0363	2490.199951
1458.559389	2513.199951
1459.082423	2505.399902
1459.605401	2479.399902
1460.128324	2487.199951
1460.651192	2475.600098
1461.174005	2494.0
1461.696763	2493.600098
1462.219465	2502.800049
1462.742113	2458.0
1463.264705	2493.800049
1463.787242	2483.199951
1464.309724	2490.600098
1464.832151	2456.600098
1465.354523	2481.399902
1465.87684	2493.399902
1466.399102	2486.800049
1466.921308	2473.0
1467.443459	2480.800049
1467.965556	2473.199951
1468.487597	2478.399902
1469.009583	2470.0
1469.531514	2477.800049
1470.05339	2471.199951
1470.575211	2472.0
1471.096977	2476.199951
1471.618688	2453.600098
1472.140343	2488.0
1472.661944	2437.199951
1473.18349	2476.199951
1473.70498	2463.199951
1474.226416	2458.0
1474.747796	2488.199951
1475.269122	2456.800049
1475.790392	2484.600098
1476.311607	2458.399902
1476.832768	2473.399902
1477.353873	2484.0
1477.874923	2481.0
1478.395918	2455.399902
1478.916859	2453.600098
1479.437744	2479.800049
1479.958574	2450.199951
1480.479349	2463.600098
1481.00007	2470.800049
1481.520735	2459.600098
1482.041345	2446.0
1482.5619	2422.800049
1483.082401	2446.199951
1483.602846	2436.199951
1484.123236	2472.199951
1484.643572	2470.600098
1485.163852	2464.600098
1485.684077	2452.600098
1486.204248	2448.0
1486.724363	2453.0
1487.244424	2455.399902
1487.76443	2439.199951
1488.28438	2451.800049
1488.804276	2437.199951
1489.324117	2445.0
1489.843903	2416.0
1490.363634	2456.399902
1490.88331	2439.600098
1491.402931	2470.600098
1491.922497	2434.800049
1492.442008	2419.199951
1492.961465	2427.399902
1493.480866	2459.399902
1494.000213	2425.199951
1494.519505	2432.399902
1495.038741	2438.0
1495.557923	2452.600098
1496.07705	2420.399902
1496.596122	2435.600098
1497.11514	2418.600098
1497.634102	2434.600098
1498.15301	2444.600098
1498.671862	2416.399902
1499.19066	2454.399902
1499.709403	2456.0
1500.228091	2446.399902
1500.746725	2438.800049
1501.265303	2426.0
1501.783827	2432.0
1502.302296	2434.600098
1502.820709	2411.399902
1503.339069	2432.0
1503.857373	2432.199951
1504.375622	2429.199951
1504.893817	2441.600098
1505.411957	2427.600098
1505.930042	2410.0
1506.448072	2424.800049
1506.966048	2411.199951
1507.483968	2412.199951
1508.001834	2413.800049
1508.519645	2413.399902
1509.037401	2402.0
1509.555103	2407.800049
1510.07275	2394.399902
1510.590342	2435.0
1511.107879	2409.399902
1511.625361	2392.0
1512.142789	2429.199951
1512.660162	2431.600098
1513.17748	2406.800049
1513.694743	2424.0
1514.211952	2402.600098
1514.729106	2391.600098
1515.246205	2398.0
1515.76325	2415.600098
1516.280239	2415.600098
1516.797174	2421.0
1517.314055	2399.0
1517.83088	2423.199951
1518.347651	2422.399902
1518.864367	2396.800049
1519.381029	2413.399902
1519.897635	2404.199951
1520.414187	2397.0
1520.930685	2395.0
1521.447127	2415.600098
1521.963515	2400.399902
1522.479849	2416.399902
1522.996127	2392.600098
1523.512351	2388.0
1524.028521	2403.199951
1524.544635	2408.199951
1525.060695	2410.199951
1525.576701	2410.199951
1526.092651	2407.800049
1526.608547	2402.399902
1527.124389	2404.199951
1527.640175	2394.800049
1528.155907	2399.199951
1528.671585	2387.199951
1529.187208	2405.199951
1529.702776	2416.0
1530.218289	2380.0
1530.733748	2399.199951
1531.249153	2407.0
1531.764502	2408.199951
1532.279798	2403.600098
1532.795038	2407.800049
1533.310224	2406.0
1533.825355	2390.399902
1534.340432	2388.399902
1534.855454	2424.399902
1535.370422	2384.600098
1535.885335	2383.800049
1536.400193	2407.0
1536.914997	2395.199951
1537.429746	2395.800049
1537.944441	2402.800049
1538.459081	2413.399902
1538.973667	2400.800049
1539.488198	2405.399902
1540.002674	2377.800049
1540.517096	2392.199951
1541.031464	2376.800049
1541.545777	2404.600098
1542.060035	2414.0
1542.574239	2395.0
1543.088388	2414.399902
1543.602483	2400.600098
1544.116523	2399.600098
1544.630509	2401.399902
1545.14444	2390.0
1545.658317	2395.800049
1546.172139	2410.800049
1546.685907	2408.399902
1547.19962	2384.600098
1547.713279	2399.600098
1548.226883	2402.800049
1548.740433	2371.0
1549.253929	2395.0
1549.76737	2399.399902
1550.280756	2364.199951
1550.794088	2389.199951
1551.307365	2389.0
1551.820588	2394.600098
1552.333757	2399.600098
1552.846871	2413.199951
1553.359931	2391.0
1553.872936	2392.199951
1554.385887	2378.600098
1554.898783	2404.0
1555.411625	2371.399902
1555.924413	2358.0
1556.437146	2387.800049
1556.949824	2366.800049
1557.462449	2388.600098
1557.975019	2364.199951
1558.487534	2389.800049
1558.999995	2371.600098
1559.512402	2372.399902
1560.024754	2407.0
1560.537052	2396.199951
1561.049295	2404.0
1561.561485	2391.199951
1562.073619	2362.800049
1562.5857	2396.600098
1563.097726	2410.0
1563.609697	2369.800049
1564.121615	2405.800049
1564.633477	2376.199951
1565.145286	2364.800049
1565.65704	2385.399902
1566.16874	2358.199951
1566.680386	2374.0
1567.191977	2383.399902
1567.703514	2385.800049
1568.214996	2369.399902
1568.726424	2367.0
1569.237798	2383.800049
1569.749118	2350.0
1570.260383	2382.800049
1570.771594	2388.399902
1571.28275	2386.399902
1571.793853	2373.0
1572.304901	2394.600098
1572.815895	2368.399902
1573.326834	2367.399902
1573.837719	2365.800049
1574.34855	2363.199951
1574.859327	2394.800049
1575.370049	2390.600098
1575.880717	2385.0
1576.391331	2388.0
1576.90189	2381.399902
1577.412395	2347.0
1577.922846	2345.800049
1578.433243	2363.600098
1578.943586	2385.600098
1579.453874	2349.0
1579.964108	2371.600098
1580.474288	2359.399902
1580.984413	2349.600098
1581.494484	2377.199951
1582.004501	2343.800049
1582.514464	2359.800049
1583.024373	2358.199951
1583.534227	2354.600098
1584.044028	2346.600098
1584.553774	2362.399902
1585.063465	2351.199951
1585.573103	2335.800049
1586.082687	2366.399902
1586.592216	2374.600098
1587.101691	2368.800049
1587.611112	2356.199951
1588.120478	2365.199951
1588.629791	2333.600098
1589.139049	2337.0
1589.648253	2354.600098
1590.157403	2361.600098
1590.666499	2351.199951
1591.175541	2371.600098
1591.684529	2354.0
1592.193462	2351.800049
