1042.545976	766.0
1043.112314	764.4000244
1043.678594	760.0
1044.244816	759.4000244
1044.810979	760.7999878
1045.377084	759.2000122
1045.943132	760.7999878
1046.509121	754.0
1047.075052	762.7999878
1047.640924	755.0
1048.206739	758.7999878
1048.772495	754.7999878
1049.338193	756.2000122
1049.903833	752.5999756
1050.469415	750.4000244
1051.034939	756.7999878
1051.600404	751.0
1052.165811	749.0
1052.731161	746.5999756
1053.296452	754.5999756
1053.861685	754.2000122
1054.426859	749.4000244
1054.991976	747.0
1055.557035	749.4000244
1056.122035	748.7999878
1056.686978	745.5999756
1057.251862	743.7999878
1057.816688	749.0
1058.381456	741.2000122
1058.946166	747.2000122
1059.510818	749.2000122
1060.075411	745.4000244
1060.639947	744.4000244
1061.204425	747.5999756
1061.768844	742.4000244
1062.333206	743.7999878
1062.897509	743.5999756
1063.461754	741.7999878
1064.025942	745.5999756
1064.590071	746.0
1065.154142	741.7999878
1065.718155	742.4000244
1066.28211	748.2000122
1066.846007	742.2000122
1067.409846	740.5999756
1067.973627	738.5999756
1068.53735	741.7999878
1069.101014	746.4000244
1069.664621	748.0
1070.22817	745.2000122
1070.791661	738.4000244
1071.355094	742.2000122
1071.918469	742.0
1072.481785	740.4000244
1073.045044	746.2000122
1073.608245	740.7999878
1074.171388	742.7999878
1074.734473	744.0
1075.297499	738.7999878
1075.860468	741.5999756
1076.423379	737.5999756
1076.986232	742.7999878
1077.549027	744.7999878
1078.111764	740.0
1078.674443	738.2000122
1079.237064	744.4000244
1079.799627	740.7999878
1080.362132	737.5999756
1080.92458	736.7999878
1081.486969	738.2000122
1082.0493	745.7999878
1082.611574	736.4000244
1083.173789	740.5999756
1083.735947	737.4000244
1084.298047	739.5999756
1084.860088	742.7999878
1085.422072	739.0
1085.983998	735.5999756
1086.545866	743.2000122
1087.107677	743.0
1087.669429	744.4000244
1088.231123	740.2000122
1088.79276	738.5999756
1089.354338	736.4000244
1089.915859	740.2000122
1090.477322	739.7999878
1091.038727	736.2000122
1091.600074	738.5999756
1092.161363	735.4000244
1092.722595	738.2000122
1093.283768	739.7999878
1093.844884	734.4000244
1094.405942	738.4000244
1094.966942	744.5999756
1095.527884	739.0
1096.088768	736.7999878
1096.649595	739.0
1097.210364	741.4000244
1097.771074	737.7999878
1098.331728	738.2000122
1098.892323	739.0
1099.45286	736.7999878
1100.01334	737.0
1100.573762	738.2000122
1101.134126	738.5999756
1101.694432	736.7999878
1102.25468	737.7999878
1102.814871	734.2000122
1103.375004	738.4000244
1103.935079	737.5999756
1104.495096	736.0
1105.055056	735.4000244
1105.614958	734.0
1106.174802	732.2000122
1106.734588	737.0
1107.294317	737.7999878
1107.853987	737.5999756
1108.4136	739.2000122
1108.973156	736.5999756
1109.532653	735.0
1110.092093	733.7999878
1110.651475	733.5999756
1111.2108	736.5999756
1111.770066	731.7999878
1112.329275	737.2000122
1112.888426	736.7999878
1113.44752	734.7999878
1114.006556	733.2000122
1114.565534	734.5999756
1115.124454	737.2000122
1115.683317	730.5999756
1116.242122	737.4000244
1116.800869	738.2000122
1117.359559	736.0
1117.918191	737.4000244
1118.476765	728.7999878
1119.035282	734.0
1119.593741	740.4000244
1120.152142	737.4000244
1120.710486	734.2000122
1121.268772	738.4000244
1121.827	733.0
1122.385171	731.5999756
1122.943284	738.0
1123.50134	734.2000122
1124.059337	732.5999756
1124.617277	729.2000122
1125.17516	733.0
1125.732985	732.4000244
1127.406114	735.0
1127.963709	738.2000122
1128.521245	734.2000122
1129.078725	728.4000244
1129.636146	736.2000122
1130.193511	739.2000122
1130.750817	732.4000244
1131.308066	734.4000244
1131.865257	733.7999878
1132.422391	735.7999878
1132.979467	739.2000122
1133.536486	736.5999756
1134.093447	733.7999878
1134.650351	730.2000122
1135.207197	734.2000122
1135.763985	735.7999878
1136.320716	734.7999878
1136.877389	732.2000122
1137.434005	733.0
1137.990563	730.5999756
1138.547064	733.7999878
1139.103507	732.7999878
1139.659893	731.5999756
1140.216221	733.2000122
1140.772492	735.0
1141.328705	731.2000122
1141.884861	728.4000244
1142.440959	731.5999756
1142.997	734.5999756
1143.552983	730.5999756
1144.108908	735.5999756
1144.664777	734.7999878
1145.220587	734.5999756
1145.776341	736.4000244
1146.332036	733.2000122
1146.887675	734.7999878
1147.443256	738.4000244
1147.998779	736.0
1148.554245	734.0
1149.109653	732.5999756
1149.665004	734.5999756
1150.220298	732.0
1150.775534	734.5999756
1151.330713	732.4000244
1151.885834	737.0
1152.440898	734.7999878
1152.995904	733.7999878
1153.550853	731.0
1154.105745	732.7999878
1154.660579	731.7999878
1155.215356	735.0
1155.770075	734.0
1156.324737	735.4000244
1156.879341	730.7999878
1157.433889	730.5999756
1157.988378	736.5999756
1158.542811	729.7999878
1159.097186	735.0
1159.651503	734.5999756
1160.205764	727.5999756
1160.759966	735.4000244
1161.314112	732.4000244
1161.8682	732.2000122
1162.422231	732.0
1162.976204	731.7999878
1163.53012	736.5999756
1164.083979	730.7999878
1164.637781	735.7999878
1165.191525	733.0
1165.745211	730.2000122
1166.298841	729.2000122
1166.852413	733.2000122
1167.405928	732.7999878
1167.959385	730.0
1168.512785	728.2000122
1169.066128	731.4000244
1169.619413	731.5999756
1170.172642	728.7999878
1170.725813	728.4000244
1171.278926	729.7999878
1171.831983	733.0
1172.384982	728.5999756
1172.937923	727.0
1173.490808	729.7999878
1174.043635	725.5999756
1174.596405	733.7999878
1175.149118	730.2000122
1175.701773	727.4000244
1176.254371	731.0
1176.806912	732.5999756
1177.359396	727.2000122
1177.911822	728.7999878
1178.464192	729.7999878
1179.016503	730.7999878
1179.568758	733.2000122
1180.120956	735.2000122
1180.673096	728.0
1181.225179	728.7999878
1181.777205	733.7999878
1182.329173	733.2000122
1182.881085	727.4000244
1183.432939	729.2000122
1183.984736	730.5999756
1184.536476	727.7999878
1185.088158	732.4000244
1185.639784	733.4000244
1186.191352	725.2000122
1186.742863	721.7999878
1187.294317	733.4000244
1187.845713	721.5999756
1188.397053	731.2000122
1188.948335	731.7999878
1189.499561	729.0
1190.050729	732.4000244
1190.601839	724.7999878
1191.152893	728.5999756
1191.70389	730.2000122
1192.254829	731.7999878
1192.805712	731.2000122
1193.907305	728.2000122
1194.458016	735.5999756
1195.00867	729.4000244
1195.559266	729.5999756
1196.109806	727.2000122
1196.660288	727.7999878
1197.210714	729.2000122
1197.761082	728.0
1198.311393	726.2000122
1198.861647	728.4000244
1199.411844	728.0
1199.961984	730.2000122
1200.512067	726.5999756
1201.062092	721.7999878
1201.612061	735.0
1202.161973	727.0
1202.711827	729.4000244
1203.261625	725.4000244
1203.811365	727.4000244
1204.361048	726.7999878
1204.910675	726.2000122
1205.460244	725.2000122
1206.009756	724.2000122
1206.559211	728.4000244
1207.10861	728.7999878
1207.657951	724.2000122
1208.207235	730.7999878
1208.756462	727.0
1209.305632	727.5999756
1209.854745	725.7999878
1210.403801	727.5999756
1210.9528	731.5999756
1211.501742	726.4000244
1212.050627	728.4000244
1212.599455	727.5999756
1213.148226	730.2000122
1213.69694	732.4000244
1214.245597	734.7999878
1214.794197	724.2000122
1215.34274	731.5999756
1215.891227	727.4000244
1216.439656	725.5999756
1216.988028	727.4000244
1217.536343	726.0
1218.084602	727.0
1218.632803	732.7999878
1219.180947	727.5999756
1219.729035	726.4000244
1220.277065	727.5999756
1220.825039	727.7999878
1221.372956	728.7999878
1221.920815	729.2000122
1222.468618	730.0
1223.016364	733.7999878
1223.564053	727.2000122
1224.111685	730.5999756
1224.65926	725.4000244
1225.206779	729.0
1225.75424	733.0
1226.301645	721.7999878
1226.848992	726.7999878
1227.396283	731.4000244
1227.943517	727.5999756
1228.490694	731.2000122
1229.037814	732.2000122
1229.584877	726.2000122
1230.131883	732.2000122
1230.678833	727.4000244
1231.225725	728.7999878
1231.772561	732.5999756
1232.31934	728.2000122
1232.866062	728.2000122
1233.412727	730.0
1233.959336	727.5999756
1234.505887	732.0
1235.052382	731.0
1235.59882	729.5999756
1236.145201	733.5999756
1236.691525	735.5999756
1237.237793	732.0
1237.784003	726.5999756
1238.330157	732.2000122
1238.876254	729.5999756
1239.422295	729.4000244
1239.968278	723.2000122
1240.514205	724.5999756
1241.060074	732.4000244
1241.605888	735.2000122
1242.151644	730.4000244
1242.697343	730.4000244
1243.242986	734.4000244
1243.788572	731.4000244
1244.334101	734.0
1244.879574	729.2000122
1245.42499	731.4000244
1245.970349	729.7999878
1246.515651	729.2000122
1247.060896	732.2000122
1247.606085	739.5999756
1248.151217	731.5999756
1248.696292	739.4000244
1249.241311	733.7999878
1249.786273	732.5999756
1250.331178	733.2000122
1250.876026	735.7999878
1251.420818	733.4000244
1251.965553	734.0
1252.510231	731.7999878
1253.054853	734.0
1253.599418	736.7999878
1254.143926	726.0
1254.688377	735.2000122
1255.232772	735.2000122
1255.77711	730.4000244
1256.321392	736.2000122
1256.865617	736.5999756
1257.409785	741.0
1257.953896	737.4000244
1258.497951	745.0
1259.041949	745.2000122
1259.585891	738.2000122
1260.129776	751.2000122
1260.673604	740.5999756
1261.217375	744.5999756
1261.76109	749.4000244
1262.304749	751.7999878
1262.84835	771.2000122
1263.391896	784.2000122
1263.935384	811.0
1264.478816	812.7999878
1265.022191	789.5999756
1265.56551	774.7999878
1266.108772	757.4000244
1266.651977	753.7999878
1267.195126	746.7999878
1267.738218	744.5999756
1268.281254	735.5999756
1268.824233	739.4000244
1269.367155	734.5999756
1269.910021	737.2000122
1270.452831	737.7999878
1270.995583	743.0
1271.53828	740.4000244
1272.080919	738.2000122
1272.623502	745.0
1273.166029	732.2000122
1273.708499	736.0
1274.250912	736.7999878
1274.793269	741.2000122
1275.33557	734.4000244
1275.877814	741.0
1276.420001	743.2000122
1276.962132	741.5999756
1277.504206	741.7999878
1278.046224	743.7999878
1278.588185	745.0
1279.13009	744.5999756
1279.671938	753.7999878
1280.21373	755.5999756
1280.755465	763.7999878
1281.297144	783.4000244
1281.838766	817.0
1282.380332	880.5999756
1282.921841	1014.599976
1283.463294	1282.199951
1284.004691	1776.599976
1284.546031	2075.600098
1285.087314	1617.400024
1285.628541	1112.199951
1286.169711	887.4000244
1286.710826	813.0
1287.251883	783.2000122
1287.792884	767.7999878
1288.333829	759.5999756
1288.874717	758.4000244
1289.415549	750.7999878
1289.956325	741.5999756
1290.497044	743.7999878
1291.037706	743.4000244
1291.578313	744.0
1292.118862	737.2000122
1292.659356	740.7999878
1293.199793	741.2000122
1293.740173	738.0
1294.280498	739.0
1294.820765	733.5999756
1295.360977	737.7999878
1295.901132	731.4000244
1296.44123	739.5999756
1296.981273	733.4000244
1297.521259	734.4000244
1298.061188	731.0
1298.601061	735.5999756
1299.140878	735.4000244
1299.680639	732.4000244
1300.220343	736.7999878
1300.75999	729.7999878
1301.299582	735.2000122
1301.839117	735.4000244
1302.378596	731.2000122
1302.918018	728.2000122
1303.457384	731.5999756
1303.996694	728.2000122
1304.535947	728.2000122
1305.075145	735.0
1305.614285	729.2000122
1306.15337	735.7999878
1306.692398	736.2000122
1307.23137	729.4000244
1307.770286	729.4000244
1308.309145	730.5999756
1308.847948	733.5999756
1309.386695	727.2000122
1309.925385	730.2000122
1310.464019	725.5999756
1311.002597	730.0
1311.541119	728.0
1312.079584	732.0
1312.617993	732.0
1313.156346	728.2000122
1313.694643	733.0
1314.232883	728.5999756
1314.771067	723.7999878
1315.309195	728.5999756
1315.847267	731.0
1316.385282	729.4000244
1316.923241	726.7999878
1317.461144	727.4000244
1317.998991	728.2000122
1318.536782	729.7999878
1319.074516	724.0
1319.612194	729.5999756
1320.149816	727.5999756
1320.687382	730.5999756
1321.224891	726.2000122
1321.762344	728.2000122
1322.299742	726.0
1322.837083	725.4000244
1323.374367	727.4000244
1323.911596	730.7999878
1324.448768	727.0
1324.985885	723.7999878
1325.522945	729.4000244
1326.059949	728.5999756
1326.596896	724.0
1327.133788	728.4000244
1327.670623	730.7999878
1328.207403	728.4000244
1328.744126	726.4000244
1329.280793	726.5999756
1329.817404	730.0
1330.353959	724.2000122
1330.890457	726.4000244
1331.4269	724.0
1331.963286	724.7999878
1332.499617	726.7999878
1333.035891	724.5999756
1333.572109	721.7999878
1334.108271	731.2000122
1334.644377	728.7999878
1335.180427	728.7999878
1335.71642	728.7999878
1336.252358	722.0
1336.78824	721.4000244
1337.324065	724.4000244
1337.859834	721.7999878
1338.395548	726.2000122
1338.931205	724.2000122
1339.466806	727.5999756
1340.002351	730.5999756
1340.537841	724.0
1341.073274	725.7999878
1341.608651	729.7999878
1342.143972	728.4000244
1342.679236	726.2000122
1343.214445	727.0
1343.749598	723.5999756
1344.284695	722.5999756
1344.819736	728.2000122
1345.354721	730.2000122
1345.88965	722.5999756
1346.424522	722.2000122
1346.959339	724.2000122
1347.4941	721.7999878
1348.028805	723.7999878
1348.563453	728.7999878
1349.098046	724.2000122
1349.632583	725.5999756
1350.167064	727.4000244
1350.701489	723.4000244
1351.235858	726.5999756
1351.770171	726.4000244
1352.304428	722.4000244
1352.838629	727.7999878
1353.372774	723.4000244
1353.906863	730.7999878
1354.440896	728.4000244
1354.974873	724.2000122
1355.508794	726.2000122
1356.04266	730.2000122
1356.576469	724.5999756
1357.110222	729.2000122
1357.64392	728.0
1358.177561	721.4000244
1358.711147	726.7999878
1359.244677	727.4000244
1359.778151	726.0
1360.311569	728.2000122
1360.844931	732.4000244
1361.378237	724.2000122
1361.911487	731.0
1362.444682	729.0
1362.97782	727.5999756
1363.510903	727.4000244
1364.043929	730.2000122
1364.5769	734.5999756
1365.109815	732.7999878
1365.642674	738.4000244
1366.175478	732.7999878
1366.708225	728.4000244
1367.240917	736.4000244
1367.773552	727.5999756
1368.306132	734.4000244
1368.838656	736.7999878
1369.371124	743.0
1369.903537	780.2000122
1370.435893	758.0
1370.968194	742.4000244
1371.500439	731.4000244
1372.032628	732.4000244
1372.564761	731.0
1373.096838	736.0
1373.62886	735.0
1374.160826	730.0
1374.692736	739.4000244
1375.22459	732.7999878
1375.756388	733.7999878
1376.288131	735.0
1376.819818	735.5999756
1377.351449	731.7999878
1377.883024	732.4000244
1378.414544	732.0
1378.946008	740.0
1379.477416	736.2000122
1380.008768	741.5999756
1380.540064	738.7999878
1381.071305	740.7999878
1381.60249	742.0
1382.133619	748.0
1382.664693	753.7999878
1383.195711	755.7999878
1383.726673	757.4000244
1384.257579	774.4000244
1384.78843	789.0
1385.319224	818.7999878
1385.849964	874.0
1386.380647	989.5999756
1386.911275	1282.199951
1387.441847	2163.399902
1387.972363	3416.399902
1388.502824	2676.199951
1389.033229	1399.0
1389.563578	973.4000244
1390.093872	850.5999756
1390.62411	801.5999756
1391.154292	781.7999878
1391.684419	765.0
1392.214489	757.4000244
1392.744505	752.7999878
1393.274464	748.4000244
1393.804368	748.7999878
1394.334216	741.5999756
1394.864009	742.7999878
1395.393746	738.4000244
1395.923427	740.2000122
1396.453053	734.0
1396.982623	740.5999756
1397.512138	734.7999878
1398.041597	736.4000244
1398.571	728.2000122
1399.100347	732.0
1399.629639	735.0
1400.158876	736.5999756
1400.688056	731.5999756
1401.217182	727.5999756
1401.746251	730.4000244
1402.275265	733.4000244
1402.804224	732.0
1403.333126	735.7999878
1403.861974	734.7999878
1404.390765	738.0
1404.919501	735.4000244
1405.448182	739.0
1405.976807	742.7999878
1406.505376	749.0
1407.03389	754.2000122
1407.562349	758.4000244
1408.090751	786.0
1408.619098	821.4000244
1409.14739	866.4000244
1409.675626	886.4000244
1410.203807	836.2000122
1410.731932	783.7999878
1411.260001	756.0
1411.788015	748.5999756
1412.315974	737.4000244
1412.843877	734.4000244
1413.371725	731.0
1413.899516	727.0
1414.427253	731.2000122
1414.954934	724.4000244
1415.482559	732.7999878
1416.010129	725.4000244
1416.537644	726.2000122
1417.065103	729.4000244
1417.592507	720.2000122
1418.119855	725.2000122
1418.647147	724.5999756
1419.174385	720.4000244
1419.701566	724.0
1420.228692	721.7999878
1420.755763	722.4000244
1421.282779	718.7999878
1421.809739	723.0
1422.336643	728.5999756
1422.863492	719.0
1423.390286	724.5999756
1423.917024	723.2000122
1424.443707	723.4000244
1424.970334	727.0
1425.496906	724.4000244
1426.023422	726.7999878
1426.549883	721.4000244
1427.076289	724.5999756
1427.602639	724.5999756
1428.128934	717.4000244
1428.655174	725.4000244
1429.181358	725.2000122
1429.707486	717.0
1430.23356	719.4000244
1430.759578	720.0
1431.28554	722.0
1431.811448	719.5999756
1432.337299	715.2000122
1432.863096	715.4000244
1433.388837	720.5999756
1433.914523	718.5999756
1434.440153	721.0
1434.965728	718.2000122
1435.491248	721.0
1436.016712	719.0
1436.542122	709.0
1437.067475	715.7999878
1437.592774	718.2000122
1438.118017	718.4000244
1438.643205	713.2000122
1439.168337	715.0
1439.693414	712.4000244
1440.218436	714.5999756
1440.743403	713.2000122
1441.268314	713.2000122
1441.79317	717.5999756
1442.31797	719.0
1442.842716	714.5999756
1443.367406	715.7999878
1443.892041	714.2000122
1444.41662	714.5999756
1444.941145	717.2000122
1445.465614	713.0
1445.990027	717.7999878
1446.514386	717.0
1447.038689	713.0
1447.562937	716.4000244
1448.08713	716.4000244
1448.611267	709.2000122
1449.13535	714.4000244
1449.659377	715.5999756
1450.183348	715.0
1450.707265	714.2000122
1451.231126	709.0
1451.754932	713.7999878
1452.278683	713.7999878
1452.802379	713.2000122
1453.32602	710.2000122
1453.849605	712.5999756
1454.373135	711.0
1454.89661	713.5999756
1455.42003	711.0
1455.943394	714.0
1456.466703	713.2000122
1456.989958	713.0
1457.513157	712.2000122
1458.0363	715.0
1458.559389	712.5999756
1459.082423	711.2000122
1459.605401	710.0
1460.128324	715.5999756
1460.651192	715.4000244
1461.174005	709.0
1461.696763	711.5999756
1462.219465	711.4000244
1462.742113	713.7999878
1463.264705	716.4000244
1463.787242	707.4000244
1464.309724	709.0
1464.832151	711.7999878
1465.354523	713.4000244
1465.87684	709.4000244
1466.399102	709.0
1466.921308	709.2000122
1467.443459	707.2000122
1467.965556	714.7999878
1468.487597	711.5999756
1469.009583	712.5999756
1469.531514	710.0
1470.05339	715.5999756
1470.575211	710.2000122
1471.096977	708.0
1471.618688	707.7999878
1472.140343	711.5999756
1472.661944	711.0
1473.18349	704.4000244
1473.70498	711.4000244
1474.226416	709.2000122
1474.747796	706.5999756
1475.269122	710.7999878
1475.790392	711.2000122
1476.311607	708.2000122
1476.832768	707.0
1477.353873	707.7999878
1477.874923	708.5999756
1478.395918	711.4000244
1478.916859	710.0
1479.437744	705.0
1479.958574	712.0
1480.479349	709.0
1481.00007	710.0
1481.520735	712.2000122
1482.041345	705.2000122
1482.5619	709.4000244
1483.082401	711.5999756
1483.602846	707.4000244
1484.123236	706.5999756
1484.643572	707.7999878
1485.163852	708.7999878
1485.684077	710.0
1486.204248	705.7999878
1486.724363	707.2000122
1487.244424	709.7999878
1487.76443	707.4000244
1488.28438	706.5999756
1488.804276	706.7999878
1489.324117	704.7999878
1489.843903	711.4000244
1490.363634	710.0
1490.88331	708.7999878
1491.402931	710.0
1491.922497	713.7999878
1492.442008	707.5999756
1492.961465	708.7999878
1493.480866	707.5999756
1494.000213	707.2000122
1494.519505	705.7999878
1495.038741	713.0
1495.557923	711.5999756
1496.07705	711.0
1496.596122	705.5999756
1497.11514	710.5999756
1497.634102	706.0
1498.15301	709.7999878
1498.671862	706.5999756
1499.19066	710.0
1499.709403	711.0
1500.228091	708.5999756
1500.746725	708.2000122
1501.265303	706.7999878
1501.783827	706.2000122
1502.302296	709.4000244
1502.820709	712.0
1503.339069	708.4000244
1503.857373	713.2000122
1504.375622	706.5999756
1504.893817	707.7999878
1505.411957	711.2000122
1505.930042	704.4000244
1506.448072	710.4000244
1506.966048	708.2000122
1507.483968	706.5999756
1508.001834	712.0
1508.519645	705.7999878
1509.037401	705.4000244
1509.555103	707.7999878
1510.07275	706.7999878
1510.590342	712.7999878
1511.107879	709.7999878
1511.625361	705.4000244
1512.142789	706.5999756
1512.660162	706.5999756
1513.17748	709.7999878
1513.694743	706.5999756
1514.211952	702.2000122
1514.729106	709.2000122
1515.246205	704.2000122
1515.76325	704.2000122
1516.280239	705.7999878
1516.797174	710.7999878
1517.314055	709.2000122
1517.83088	706.5999756
1518.347651	707.2000122
1518.864367	707.2000122
1519.381029	709.7999878
1519.897635	703.4000244
1520.414187	707.4000244
1520.930685	702.5999756
1521.447127	705.4000244
1521.963515	707.5999756
1522.479849	709.5999756
1522.996127	703.4000244
1523.512351	705.4000244
1524.028521	709.0
1524.544635	705.5999756
1525.060695	710.7999878
1525.576701	705.4000244
1526.092651	708.5999756
1526.608547	706.4000244
1527.124389	712.4000244
1527.640175	708.7999878
1528.155907	709.5999756
1528.671585	706.5999756
1529.187208	705.7999878
1529.702776	708.7999878
1530.218289	706.2000122
1530.733748	707.5999756
1531.249153	704.4000244
1531.764502	707.4000244
1532.279798	707.0
1532.795038	706.0
1533.310224	704.2000122
1533.825355	710.0
1534.340432	707.5999756
1534.855454	709.2000122
1535.370422	704.2000122
1535.885335	704.2000122
1536.400193	709.7999878
1536.914997	705.0
1537.429746	708.0
1537.944441	705.7999878
1538.459081	704.2000122
1538.973667	706.0
1539.488198	705.2000122
1540.002674	705.2000122
1540.517096	700.4000244
1541.031464	703.7999878
1541.545777	708.2000122
1542.060035	706.7999878
1542.574239	705.5999756
1543.088388	704.0
1543.602483	708.4000244
1544.116523	706.0
1544.630509	705.2000122
1545.14444	710.0
1545.658317	703.5999756
1546.172139	706.0
1546.685907	710.4000244
1547.19962	704.2000122
1547.713279	708.0
1548.226883	709.4000244
1548.740433	704.0
1549.253929	705.0
1549.76737	708.7999878
1550.280756	706.7999878
1550.794088	702.5999756
1551.307365	703.7999878
1551.820588	702.2000122
1552.333757	705.4000244
1552.846871	705.0
1553.359931	702.7999878
1553.872936	704.4000244
1554.385887	704.4000244
1554.898783	704.5999756
1555.411625	702.2000122
1555.924413	703.7999878
1556.437146	705.7999878
1556.949824	707.0
1557.462449	705.2000122
1557.975019	700.7999878
1558.487534	704.5999756
1558.999995	704.2000122
1559.512402	705.2000122
1560.024754	706.0
1560.537052	705.2000122
1561.049295	702.5999756
1561.561485	706.2000122
1562.073619	704.4000244
1562.5857	705.7999878
1563.097726	706.5999756
1563.609697	703.2000122
1564.121615	706.2000122
1564.633477	706.7999878
1565.145286	705.5999756
1565.65704	706.4000244
1566.16874	704.4000244
1566.680386	707.0
1567.191977	703.0
1567.703514	706.7999878
1568.214996	707.7999878
1568.726424	703.5999756
1569.237798	704.0
1569.749118	706.4000244
1570.260383	706.0
1570.771594	705.0
1571.28275	704.5999756
1571.793853	704.0
1572.304901	707.7999878
1572.815895	708.2000122
1573.326834	706.4000244
1573.837719	707.4000244
1574.34855	704.7999878
1574.859327	703.4000244
1575.370049	701.5999756
1575.880717	703.7999878
1576.391331	702.7999878
1576.90189	699.4000244
1577.412395	702.7999878
1577.922846	712.0
1578.433243	704.7999878
1578.943586	707.0
1579.453874	707.2000122
1579.964108	706.4000244
1580.474288	705.0
1580.984413	704.0
1581.494484	705.2000122
1582.004501	706.5999756
1582.514464	705.5999756
1583.024373	702.0
1583.534227	707.2000122
1584.044028	704.0
1584.553774	705.7999878
1585.063465	707.2000122
1585.573103	706.0
1586.082687	706.7999878
1586.592216	708.5999756
1587.101691	706.0
1587.611112	704.4000244
1588.120478	703.4000244
1588.629791	704.5999756
1589.139049	705.2000122
1589.648253	706.4000244
1590.157403	701.7999878
1590.666499	704.5999756
1591.175541	704.4000244
1591.684529	707.0
