1042.545976	2300.399902
1043.112314	2300.600098
1043.678594	2300.399902
1044.244816	2304.800049
1044.810979	2293.600098
1045.377084	2307.600098
1045.943132	2293.800049
1046.509121	2303.199951
1047.075052	2280.399902
1047.640924	2294.600098
1048.206739	2254.0
1048.772495	2299.600098
1049.338193	2282.800049
1049.903833	2286.199951
1050.469415	2242.199951
1051.034939	2287.399902
1051.600404	2270.399902
1052.165811	2284.600098
1052.731161	2279.800049
1053.296452	2261.399902
1053.861685	2283.0
1054.426859	2281.0
1054.991976	2256.600098
1055.557035	2284.0
1056.122035	2263.199951
1056.686978	2285.399902
1057.251862	2270.399902
1057.816688	2275.600098
1058.381456	2260.600098
1058.946166	2254.800049
1059.510818	2240.399902
1060.075411	2263.399902
1060.639947	2249.600098
1061.204425	2257.800049
1061.768844	2256.399902
1062.333206	2251.600098
1062.897509	2262.399902
1063.461754	2258.399902
1064.025942	2252.399902
1064.590071	2240.399902
1065.154142	2222.399902
1065.718155	2237.0
1066.28211	2245.600098
1066.846007	2240.600098
1067.409846	2229.399902
1067.973627	2242.399902
1068.53735	2222.600098
1069.101014	2234.399902
1069.664621	2246.399902
1070.22817	2244.399902
1070.791661	2234.399902
1071.355094	2246.800049
1071.918469	2222.0
1072.481785	2227.800049
1073.045044	2214.199951
1073.608245	2218.600098
1074.171388	2229.199951
1074.734473	2221.199951
1075.297499	2218.800049
1075.860468	2227.0
1076.423379	2211.399902
1076.986232	2200.199951
1077.549027	2203.0
1078.111764	2197.199951
1078.674443	2213.600098
1079.237064	2204.800049
1079.799627	2220.800049
1080.362132	2202.0
1080.92458	2186.399902
1081.486969	2191.800049
1082.0493	2193.399902
1082.611574	2199.199951
1083.173789	2200.600098
1083.735947	2179.399902
1084.298047	2192.0
1084.860088	2182.800049
1085.422072	2204.0
1085.983998	2184.199951
1086.545866	2166.0
1087.107677	2171.199951
1087.669429	2190.800049
1088.231123	2191.0
1088.79276	2175.0
1089.354338	2166.0
1089.915859	2159.600098
1090.477322	2138.800049
1091.038727	2169.600098
1091.600074	2162.199951
1092.161363	2156.800049
1092.722595	2151.199951
1093.283768	2170.399902
1093.844884	2160.399902
1094.405942	2167.399902
1094.966942	2136.399902
1095.527884	2154.0
1096.088768	2147.399902
1096.649595	2145.399902
1097.210364	2152.199951
1097.771074	2132.199951
1098.331728	2134.800049
1098.892323	2154.600098
1099.45286	2139.399902
1100.01334	2135.600098
1100.573762	2130.800049
1101.134126	2149.399902
1101.694432	2116.600098
1102.25468	2136.600098
1102.814871	2119.600098
1103.375004	2122.600098
1103.935079	2128.800049
1104.495096	2117.600098
1105.055056	2108.199951
1105.614958	2111.600098
1106.174802	2089.399902
1106.734588	2105.0
1107.294317	2092.399902
1107.853987	2096.199951
1108.4136	2110.600098
1108.973156	2131.0
1109.532653	2118.0
1110.092093	2115.399902
1110.651475	2091.800049
1111.2108	2100.0
1111.770066	2069.800049
1112.329275	2086.0
1112.888426	2091.199951
1113.44752	2082.399902
1114.006556	2085.0
1114.565534	2079.800049
1115.124454	2095.0
1115.683317	2095.800049
1116.242122	2084.600098
1116.800869	2093.399902
1117.359559	2084.800049
1117.918191	2094.600098
1118.476765	2089.600098
1119.035282	2081.600098
1119.593741	2069.399902
1120.152142	2073.800049
1120.710486	2078.800049
1121.268772	2068.0
1121.827	2089.0
1122.385171	2080.600098
1122.943284	2074.0
1123.50134	2076.0
1124.059337	2078.600098
1124.617277	2070.199951
1125.17516	2076.199951
1125.732985	2065.199951
1126.290752	2071.399902
1126.848462	2071.600098
1127.406114	2061.399902
1127.963709	2076.0
1128.521245	2053.0
1129.078725	2067.0
1129.636146	2047.199951
1130.193511	2052.399902
1130.750817	2042.599976
1131.308066	2030.0
1131.865257	2048.0
1132.422391	2055.199951
1132.979467	2070.199951
1133.536486	2062.399902
1134.093447	2057.800049
1134.650351	2064.600098
1135.207197	2060.199951
1135.763985	2063.0
1136.320716	2042.800049
1136.877389	2068.800049
1137.434005	2042.0
1137.990563	2047.199951
1138.547064	2056.800049
1139.103507	2058.800049
1139.659893	2045.800049
1140.216221	2043.800049
1140.772492	2048.199951
1141.328705	2045.199951
1141.884861	2049.0
1142.440959	2040.0
1142.997	2048.0
1143.552983	2038.800049
1144.108908	2043.400024
1144.664777	2045.800049
1145.220587	2042.800049
1145.776341	2039.199951
1146.332036	2028.599976
1146.887675	2036.0
1147.443256	2045.599976
1147.998779	2039.800049
1148.554245	2066.199951
1149.109653	2028.400024
1149.665004	2043.0
1150.220298	2025.599976
1150.775534	2037.199951
1151.330713	2043.800049
1151.885834	2033.199951
1152.440898	2043.599976
1152.995904	2060.0
1153.550853	2030.199951
1154.105745	2041.0
1154.660579	2029.400024
1155.215356	2059.600098
1155.770075	2034.800049
1156.324737	2035.199951
1156.879341	2023.199951
1157.433889	2019.0
1157.988378	2043.0
1158.542811	2042.0
1159.097186	2018.599976
1159.651503	2034.400024
1160.205764	2015.800049
1160.759966	2022.800049
1161.314112	2025.199951
1161.8682	2040.400024
1162.422231	2028.400024
1162.976204	2030.0
1163.53012	2017.400024
1164.083979	2023.800049
1164.637781	2007.599976
1165.191525	2034.0
1165.745211	2021.400024
1166.298841	2032.0
1166.852413	2039.400024
1167.405928	2019.800049
1167.959385	2019.0
1168.512785	2026.199951
1169.066128	2027.199951
1169.619413	2021.599976
1170.172642	2006.599976
1170.725813	2009.800049
1171.278926	2042.400024
1171.831983	2020.400024
1172.384982	2020.400024
1172.937923	2003.599976
1173.490808	1998.599976
1174.043635	2002.0
1174.596405	2004.599976
1175.149118	2010.199951
1175.701773	2012.400024
1176.254371	2014.800049
1176.806912	2006.800049
1177.359396	2007.599976
1177.911822	2005.0
1178.464192	2010.0
1179.016503	2016.0
1179.568758	2005.800049
1180.120956	1982.400024
1180.673096	1998.400024
1181.225179	1998.800049
1181.777205	1996.0
1182.329173	1989.800049
1182.881085	1990.199951
1183.432939	2007.199951
1183.984736	1983.599976
1184.536476	1994.599976
1185.088158	1999.599976
1185.639784	1967.400024
1186.191352	1982.400024
1186.742863	1986.400024
1187.294317	1978.599976
1187.845713	1990.199951
1188.397053	1977.400024
1188.948335	1984.800049
1189.499561	1973.199951
1190.050729	1987.199951
1190.601839	1982.400024
1191.152893	1977.599976
1191.70389	1967.400024
1192.254829	1982.599976
1192.805712	1971.400024
1193.356537	1980.599976
1193.907305	1985.599976
1194.458016	1978.800049
1195.00867	1990.199951
1195.559266	1974.199951
1196.109806	1968.400024
1196.660288	1974.800049
1197.210714	1975.0
1197.761082	1957.800049
1198.311393	1964.400024
1198.861647	1974.400024
1199.411844	1957.599976
1199.961984	1952.400024
1200.512067	1957.400024
1201.062092	1966.400024
1201.612061	1969.0
1202.161973	1959.800049
1202.711827	1961.800049
1203.261625	1954.0
1203.811365	1942.400024
1204.361048	1959.400024
1204.910675	1951.400024
1205.460244	1948.199951
1206.009756	1945.800049
1206.559211	1938.0
1207.10861	1939.800049
1207.657951	1957.800049
1208.207235	1942.800049
1208.756462	1955.199951
1209.305632	1945.199951
1209.854745	1947.199951
1210.403801	1973.599976
1210.9528	1950.400024
1211.501742	1927.800049
1212.050627	1930.599976
1212.599455	1937.800049
1213.148226	1946.599976
1213.69694	1941.400024
1214.245597	1932.400024
1214.794197	1926.199951
1215.34274	1945.0
1215.891227	1957.400024
1216.439656	1928.800049
1216.988028	1938.800049
1217.536343	1936.0
1218.084602	1943.800049
1218.632803	1939.400024
1219.180947	1939.400024
1219.729035	1931.800049
1220.277065	1922.800049
1220.825039	1923.0
1221.372956	1936.400024
1221.920815	1931.400024
1222.468618	1921.599976
1223.016364	1931.800049
1223.564053	1913.599976
1224.111685	1911.400024
1224.65926	1917.400024
1225.206779	1921.599976
1225.75424	1910.599976
1226.301645	1929.599976
1226.848992	1921.0
1227.396283	1911.800049
1227.943517	1938.599976
1228.490694	1910.800049
1229.037814	1927.599976
1229.584877	1914.199951
1230.131883	1929.599976
1230.678833	1915.0
1231.225725	1902.400024
1231.772561	1908.199951
1232.31934	1906.199951
1232.866062	1908.800049
1233.412727	1906.400024
1233.959336	1912.0
1234.505887	1900.800049
1235.052382	1899.800049
1235.59882	1907.599976
1236.145201	1903.800049
1236.691525	1911.400024
1237.237793	1899.0
1237.784003	1889.599976
1238.330157	1905.400024
1238.876254	1892.199951
1239.422295	1898.599976
1239.968278	1908.0
1240.514205	1909.599976
1241.060074	1895.599976
1241.605888	1896.800049
1242.151644	1906.800049
1242.697343	1915.199951
1243.242986	1887.599976
1243.788572	1916.800049
1244.334101	1898.599976
1244.879574	1906.0
1245.42499	1907.400024
1245.970349	1881.400024
1246.515651	1896.800049
1247.060896	1903.400024
1247.606085	1880.599976
1248.151217	1879.800049
1248.696292	1885.800049
1249.241311	1881.800049
1249.786273	1862.199951
1250.331178	1901.199951
1250.876026	1878.400024
1251.420818	1898.0
1251.965553	1877.599976
1252.510231	1873.599976
1253.054853	1883.400024
1253.599418	1875.0
1254.143926	1871.0
1254.688377	1866.0
1255.232772	1860.800049
1255.77711	1884.800049
1256.321392	1884.199951
1256.865617	1889.199951
1257.409785	1862.199951
1257.953896	1858.199951
1258.497951	1863.800049
1259.041949	1892.199951
1259.585891	1904.400024
1260.129776	1870.599976
1260.673604	1861.0
1261.217375	1881.599976
1261.76109	1870.400024
1262.304749	1865.400024
1262.84835	1872.0
1263.391896	1879.599976
1263.935384	1868.0
1264.478816	1852.199951
1265.022191	1906.599976
1265.56551	1901.0
1266.108772	1877.800049
1266.651977	1858.800049
1267.195126	1867.599976
1267.738218	1875.400024
1268.281254	1854.800049
1268.824233	1877.199951
1269.367155	1871.800049
1269.910021	1858.400024
1270.452831	1852.0
1270.995583	1862.599976
1271.53828	1852.400024
1272.080919	1860.599976
1272.623502	1857.800049
1273.166029	1831.0
1273.708499	1856.199951
1274.250912	1860.0
1274.793269	1852.400024
1275.33557	1860.199951
1275.877814	1829.400024
1276.420001	1848.199951
1276.962132	1874.0
1277.504206	1848.400024
1278.046224	1836.0
1278.588185	1867.599976
1279.13009	1829.0
1279.671938	1839.599976
1280.21373	1838.800049
1280.755465	1848.199951
1281.297144	1827.599976
1281.838766	1833.0
1282.380332	1836.800049
1282.921841	1855.599976
1283.463294	1851.800049
1284.004691	1850.199951
1284.546031	1913.199951
1285.087314	2125.800049
1285.628541	2452.199951
1286.169711	2111.199951
1286.710826	1903.199951
1287.251883	1866.800049
1287.792884	1836.199951
1288.333829	1840.800049
1288.874717	1832.0
1289.415549	1843.199951
1289.956325	1842.599976
1290.497044	1817.0
1291.037706	1835.0
1291.578313	1824.0
1292.118862	1835.400024
1292.659356	1833.199951
1293.199793	1836.400024
1293.740173	1841.400024
1294.280498	1806.599976
1294.820765	1819.599976
1295.360977	1792.0
1295.901132	1803.0
1296.44123	1818.400024
1296.981273	1815.599976
1297.521259	1796.0
1298.061188	1810.599976
1298.601061	1829.599976
1299.140878	1824.599976
1299.680639	1800.800049
1300.220343	1809.800049
1300.75999	1801.199951
1301.299582	1783.599976
1301.839117	1807.400024
1302.378596	1802.599976
1302.918018	1799.0
1303.457384	1812.599976
1303.996694	1773.0
1304.535947	1793.599976
1305.075145	1813.0
1305.614285	1826.800049
1306.15337	1784.0
1306.692398	1793.599976
1307.23137	1799.199951
1307.770286	1788.599976
1308.309145	1785.0
1308.847948	1806.199951
1309.386695	1787.400024
1309.925385	1798.400024
1310.464019	1793.0
1311.002597	1780.199951
1311.541119	1774.800049
1312.079584	1798.0
1312.617993	1779.0
1313.156346	1783.800049
1313.694643	1808.599976
1314.232883	1766.800049
1314.771067	1797.199951
1315.309195	1780.0
1315.847267	1806.599976
1316.385282	1770.800049
1316.923241	1777.400024
1317.461144	1767.599976
1317.998991	1785.400024
1318.536782	1772.599976
1319.074516	1795.400024
1319.612194	1773.199951
1320.149816	1783.599976
1320.687382	1758.0
1321.224891	1768.0
1321.762344	1773.599976
1322.299742	1779.599976
1322.837083	1770.400024
1323.374367	1758.0
1323.911596	1764.599976
1324.448768	1764.199951
1324.985885	1766.599976
1325.522945	1782.599976
1326.059949	1756.599976
1326.596896	1772.0
1327.133788	1748.199951
1327.670623	1743.199951
1328.207403	1765.0
1328.744126	1778.199951
1329.280793	1766.199951
1329.817404	1770.0
1330.353959	1762.0
1330.890457	1748.599976
1331.4269	1757.0
1331.963286	1747.0
1332.499617	1763.800049
1333.035891	1751.800049
1333.572109	1747.800049
1334.108271	1750.599976
1334.644377	1746.0
1335.180427	1752.800049
1335.71642	1763.199951
1336.252358	1756.599976
1336.78824	1738.400024
1337.324065	1762.400024
1337.859834	1740.199951
1338.395548	1761.199951
1338.931205	1749.599976
1339.466806	1759.0
1340.002351	1754.0
1340.537841	1750.800049
1341.073274	1726.599976
1341.608651	1748.800049
1342.143972	1740.800049
1342.679236	1754.599976
1343.214445	1731.400024
1343.749598	1736.0
1344.284695	1720.199951
1344.819736	1738.400024
1345.354721	1740.800049
1345.88965	1720.199951
1346.424522	1738.599976
1346.959339	1761.800049
1347.4941	1751.599976
1348.028805	1726.199951
1348.563453	1735.400024
1349.098046	1728.800049
1349.632583	1722.400024
1350.167064	1726.800049
1350.701489	1735.199951
1351.235858	1709.800049
1351.770171	1730.400024
1352.304428	1729.0
1352.838629	1740.199951
1353.372774	1714.0
1353.906863	1731.0
1354.440896	1717.599976
1354.974873	1718.0
1355.508794	1714.199951
1356.04266	1726.599976
1356.576469	1727.800049
1357.110222	1728.0
1357.64392	1714.599976
1358.177561	1691.400024
1358.711147	1722.400024
1359.244677	1711.599976
1359.778151	1711.199951
1360.311569	1704.400024
1360.844931	1721.800049
1361.378237	1709.599976
1361.911487	1719.800049
1362.444682	1713.0
1362.97782	1717.400024
1363.510903	1706.599976
1364.043929	1717.800049
1364.5769	1719.599976
1365.109815	1694.0
1365.642674	1702.800049
1366.175478	1723.800049
1366.708225	1706.400024
1367.240917	1705.199951
1367.773552	1727.400024
1368.306132	1680.199951
1368.838656	1707.800049
1369.371124	1699.800049
1369.903537	1710.199951
1370.435893	1707.400024
1370.968194	1716.0
1371.500439	1687.599976
1372.032628	1689.400024
1372.564761	1682.400024
1373.096838	1710.0
1373.62886	1681.800049
1374.160826	1703.400024
1374.692736	1702.0
1375.22459	1687.0
1375.756388	1692.0
1376.288131	1672.0
1376.819818	1689.800049
1377.351449	1681.599976
1377.883024	1698.199951
1378.414544	1671.0
1378.946008	1689.599976
1379.477416	1683.0
1380.008768	1703.0
1380.540064	1678.400024
1381.071305	1695.800049
1381.60249	1690.0
1382.133619	1686.800049
1382.664693	1684.599976
1383.195711	1704.400024
1383.726673	1683.199951
1384.257579	1697.199951
1384.78843	1679.0
1385.319224	1680.0
1385.849964	1700.800049
1386.380647	1707.0
1386.911275	1710.800049
1387.441847	1740.800049
1387.972363	1835.0
1388.502824	2481.199951
1389.033229	2501.0
1389.563578	1847.400024
1390.093872	1721.0
1390.62411	1686.400024
1391.154292	1686.199951
1391.684419	1696.800049
1392.214489	1688.599976
1392.744505	1676.400024
1393.274464	1665.800049
1393.804368	1671.0
1394.334216	1682.400024
1394.864009	1672.400024
1395.393746	1672.599976
1395.923427	1668.800049
1396.453053	1658.599976
1396.982623	1684.800049
1397.512138	1669.0
1398.041597	1671.599976
1398.571	1671.800049
1399.100347	1660.0
1399.629639	1671.599976
1400.158876	1680.800049
1400.688056	1655.199951
1401.217182	1650.199951
1401.746251	1672.0
1402.275265	1651.199951
1402.804224	1681.400024
1403.333126	1655.0
1403.861974	1669.0
1404.390765	1646.599976
1404.919501	1671.0
1405.448182	1663.400024
1405.976807	1667.0
1406.505376	1655.199951
1407.03389	1653.400024
1407.562349	1663.199951
1408.090751	1680.199951
1408.619098	1667.400024
1409.14739	1696.599976
1409.675626	1724.0
1410.203807	1720.199951
1410.731932	1686.800049
1411.260001	1654.0
1411.788015	1655.400024
1412.315974	1653.400024
1412.843877	1674.400024
1413.371725	1655.199951
1413.899516	1656.199951
1414.427253	1661.599976
1414.954934	1647.400024
1415.482559	1659.599976
1416.010129	1655.400024
1416.537644	1656.0
1417.065103	1646.199951
1417.592507	1641.199951
1418.119855	1650.800049
1418.647147	1636.400024
1419.174385	1652.800049
1419.701566	1650.800049
1420.228692	1652.599976
1420.755763	1638.0
1421.282779	1657.599976
1421.809739	1655.599976
1422.336643	1644.199951
1422.863492	1650.400024
1423.390286	1644.0
1423.917024	1658.0
1424.443707	1649.199951
1424.970334	1657.800049
1425.496906	1650.599976
1426.023422	1652.0
1426.549883	1641.400024
1427.076289	1638.0
1427.602639	1629.599976
1428.128934	1654.599976
1428.655174	1641.800049
1429.181358	1640.400024
1429.707486	1627.199951
1430.23356	1642.400024
1430.759578	1626.0
1431.28554	1640.400024
1431.811448	1636.800049
1432.337299	1637.800049
1432.863096	1642.599976
1433.388837	1639.599976
1433.914523	1631.199951
1434.440153	1636.400024
1434.965728	1625.0
1435.491248	1630.199951
1436.016712	1636.400024
1436.542122	1616.199951
1437.067475	1627.800049
1437.592774	1632.800049
1438.118017	1627.0
1438.643205	1634.0
1439.168337	1632.599976
1439.693414	1638.0
1440.218436	1633.0
1440.743403	1644.800049
1441.268314	1617.199951
1441.79317	1632.599976
1442.31797	1621.199951
1442.842716	1619.800049
1443.367406	1617.599976
1443.892041	1617.400024
1444.41662	1629.599976
1444.941145	1614.400024
1445.465614	1607.0
1445.990027	1625.599976
1446.514386	1621.199951
1447.038689	1613.599976
1447.562937	1603.199951
1448.08713	1620.0
1448.611267	1603.599976
1449.13535	1611.400024
1449.659377	1621.199951
1450.183348	1615.0
1450.707265	1610.400024
1451.231126	1623.400024
1451.754932	1598.199951
1452.278683	1599.800049
1452.802379	1620.199951
1453.32602	1625.400024
1453.849605	1602.800049
1454.373135	1618.0
1454.89661	1608.0
1455.42003	1608.0
1455.943394	1616.400024
1456.466703	1615.599976
1456.989958	1601.0
1457.513157	1597.599976
1458.0363	1588.400024
1458.559389	1596.400024
1459.082423	1588.0
1459.605401	1621.0
1460.128324	1587.599976
1460.651192	1599.800049
1461.174005	1607.0
1461.696763	1602.0
1462.219465	1599.0
1462.742113	1609.400024
1463.264705	1603.0
1463.787242	1591.599976
1464.309724	1592.800049
1464.832151	1590.599976
1465.354523	1598.400024
1465.87684	1604.400024
1466.399102	1607.0
1466.921308	1606.400024
1467.443459	1593.0
1467.965556	1601.0
1468.487597	1581.0
1469.009583	1596.599976
1469.531514	1592.800049
1470.05339	1598.0
1470.575211	1581.199951
1471.096977	1611.400024
1471.618688	1580.400024
1472.140343	1586.800049
1472.661944	1573.400024
1473.18349	1588.0
1473.70498	1588.199951
1474.226416	1599.599976
1474.747796	1586.400024
1475.269122	1579.199951
1475.790392	1586.599976
1476.311607	1581.199951
1476.832768	1584.800049
1477.353873	1563.599976
1477.874923	1591.400024
1478.395918	1575.800049
1478.916859	1584.400024
1479.437744	1574.0
1479.958574	1584.599976
1480.479349	1577.800049
1481.00007	1591.800049
1481.520735	1577.400024
1482.041345	1564.199951
1482.5619	1583.199951
1483.082401	1570.400024
1483.602846	1571.199951
1484.123236	1554.400024
1484.643572	1571.400024
1485.163852	1592.800049
1485.684077	1583.199951
1486.204248	1560.800049
1486.724363	1566.599976
1487.244424	1573.0
1487.76443	1562.599976
1488.28438	1575.800049
1488.804276	1564.400024
1489.324117	1575.400024
1489.843903	1555.199951
1490.363634	1573.199951
1490.88331	1570.599976
1491.402931	1560.800049
1491.922497	1560.599976
1492.442008	1556.400024
1492.961465	1547.199951
1493.480866	1550.599976
1494.000213	1545.0
1494.519505	1551.199951
1495.038741	1560.800049
1495.557923	1564.800049
1496.07705	1564.0
1496.596122	1556.0
1497.11514	1549.0
1497.634102	1557.0
1498.15301	1565.599976
1498.671862	1547.0
1499.19066	1540.199951
1499.709403	1562.0
1500.228091	1547.800049
1500.746725	1532.400024
1501.265303	1558.400024
1501.783827	1561.0
1502.302296	1556.199951
1502.820709	1556.800049
1503.339069	1552.199951
1503.857373	1552.0
1504.375622	1560.0
1504.893817	1549.0
1505.411957	1536.599976
1505.930042	1554.0
1506.448072	1538.0
1506.966048	1546.400024
1507.483968	1549.199951
1508.001834	1543.599976
1508.519645	1540.0
1509.037401	1544.0
1509.555103	1542.599976
1510.07275	1544.199951
1510.590342	1565.599976
1511.107879	1530.800049
1511.625361	1548.599976
1512.142789	1536.400024
1512.660162	1536.599976
1513.17748	1535.800049
1513.694743	1544.0
1514.211952	1541.599976
1514.729106	1524.199951
1515.246205	1543.0
1515.76325	1538.199951
1516.280239	1527.599976
1516.797174	1540.199951
1517.314055	1532.0
1517.83088	1538.400024
1518.347651	1530.599976
1518.864367	1540.199951
1519.381029	1538.0
1519.897635	1532.0
1520.414187	1534.199951
1520.930685	1523.0
1521.447127	1527.599976
1521.963515	1526.599976
1522.479849	1539.0
1522.996127	1532.800049
1523.512351	1521.599976
1524.028521	1537.0
1525.060695	1551.0
1525.576701	1527.199951
1526.092651	1523.0
1526.608547	1522.199951
1527.124389	1517.0
1527.640175	1519.0
1528.155907	1518.800049
1528.671585	1515.599976
1529.187208	1537.599976
1529.702776	1522.0
1530.218289	1530.599976
1530.733748	1521.400024
1531.249153	1530.400024
1531.764502	1536.599976
1532.279798	1503.0
1532.795038	1512.599976
1533.310224	1525.199951
1533.825355	1528.800049
1534.340432	1511.400024
1534.855454	1522.400024
1535.370422	1514.199951
1535.885335	1526.199951
1536.400193	1542.199951
1536.914997	1526.199951
1537.429746	1526.800049
1537.944441	1501.400024
1538.459081	1528.400024
1538.973667	1507.599976
1539.488198	1518.199951
1540.002674	1507.400024
1540.517096	1521.199951
1541.031464	1521.800049
1541.545777	1503.199951
1542.060035	1519.400024
1542.574239	1518.599976
1543.088388	1512.599976
1543.602483	1519.400024
1544.116523	1532.0
1544.630509	1506.599976
1545.14444	1507.400024
1545.658317	1504.199951
1546.172139	1515.199951
1546.685907	1523.800049
1547.19962	1510.599976
1547.713279	1512.599976
1548.226883	1515.800049
1548.740433	1506.0
1549.253929	1488.599976
1549.76737	1504.199951
1550.280756	1518.599976
1550.794088	1492.0
1551.307365	1515.199951
1551.820588	1524.0
1552.333757	1512.599976
1552.846871	1504.800049
1553.359931	1521.599976
1553.872936	1506.400024
1554.385887	1504.599976
1554.898783	1493.800049
1555.411625	1510.800049
1555.924413	1506.199951
1556.437146	1515.400024
1556.949824	1506.0
1557.462449	1512.599976
1557.975019	1502.0
1558.487534	1504.0
1558.999995	1514.199951
1559.512402	1502.599976
1560.024754	1510.199951
1560.537052	1500.599976
1561.049295	1495.400024
1561.561485	1482.199951
1562.073619	1515.199951
1562.5857	1495.199951
1563.097726	1507.599976
1563.609697	1494.199951
1564.121615	1479.400024
1564.633477	1502.599976
1565.145286	1496.800049
1565.65704	1490.400024
1566.16874	1486.0
1566.680386	1492.400024
1567.191977	1505.400024
1567.703514	1505.800049
1568.214996	1481.599976
1568.726424	1494.800049
1569.237798	1491.199951
1569.749118	1493.599976
1570.260383	1494.199951
1570.771594	1496.800049
1571.28275	1488.0
1571.793853	1488.400024
1572.304901	1501.599976
1572.815895	1503.0
1573.326834	1493.199951
1573.837719	1482.400024
1574.34855	1484.0
1574.859327	1491.400024
1575.370049	1500.199951
1575.880717	1496.599976
1576.391331	1485.400024
1576.90189	1487.199951
1577.412395	1487.0
1577.922846	1497.0
1578.433243	1486.199951
1578.943586	1501.800049
1579.453874	1479.800049
1579.964108	1483.599976
1580.474288	1484.400024
1580.984413	1476.800049
1581.494484	1478.599976
1582.004501	1482.800049
1582.514464	1471.599976
1583.024373	1480.599976
1583.534227	1480.599976
1584.044028	1463.599976
1584.553774	1488.199951
1585.063465	1474.800049
1585.573103	1472.800049
1586.082687	1486.400024
1586.592216	1473.800049
1587.101691	1483.599976
1587.611112	1468.0
1588.120478	1478.599976
1588.629791	1481.400024
1589.139049	1482.400024
1589.648253	1471.199951
1590.157403	1481.0
1590.666499	1464.599976
1591.175541	1480.599976
1591.684529	1468.400024
1592.193462	1469.599976
