1042.545976	2045.333374
1043.112314	2058.333252
1043.678594	2033.333374
1044.244816	2053.333252
1044.810979	2049.666748
1045.377084	2037.666626
1045.943132	2043.666626
1046.509121	2068.0
1047.075052	2057.666748
1047.640924	2047.333374
1048.206739	2049.0
1048.772495	2056.666748
1049.338193	2042.333374
1049.903833	2043.666626
1050.469415	2030.0
1051.034939	2010.333374
1051.600404	2055.0
1052.165811	2035.666626
1052.731161	2031.666626
1053.296452	2069.333252
1053.861685	2028.0
1054.426859	2046.0
1054.991976	2036.0
1055.557035	2032.666626
1056.122035	2065.666748
1056.686978	2060.333252
1057.251862	2035.666626
1057.816688	2039.0
1058.381456	2050.0
1058.946166	2053.0
1059.510818	2038.666626
1060.075411	2002.666626
1060.639947	2044.666626
1061.204425	2037.333374
1061.768844	2045.0
1062.333206	2011.333374
1062.897509	2020.666626
1063.461754	2030.0
1064.025942	2037.333374
1064.590071	2001.0
1065.154142	2030.333374
1066.28211	2019.666626
1066.846007	2046.0
1067.409846	2039.666626
1067.973627	2014.333374
1068.53735	2021.333374
1069.101014	2005.666626
1069.664621	2042.0
1070.22817	2035.0
1070.791661	2017.666626
1071.355094	2025.666626
1071.918469	2025.0
1072.481785	2019.666626
1073.045044	2043.0
1073.608245	2009.666626
1074.171388	2025.0
1074.734473	2012.333374
1075.297499	2029.333374
1075.860468	2001.333374
1076.423379	2028.333374
1076.986232	2035.666626
1077.549027	2020.333374
1078.111764	2009.333374
1078.674443	2013.666626
1079.237064	2007.0
1079.799627	2036.333374
1080.362132	2008.333374
1080.92458	1992.333374
1081.486969	1989.0
1082.0493	1993.666626
1082.611574	1999.666626
1083.173789	2026.333374
1083.735947	1994.666626
1084.298047	2017.666626
1084.860088	2002.333374
1085.422072	1983.333374
1085.983998	1988.0
1086.545866	2003.333374
1087.107677	1992.333374
1087.669429	2018.0
1088.231123	1981.666626
1088.79276	2005.333374
1089.354338	1989.666626
1089.915859	1999.333374
1090.477322	1994.666626
1091.038727	2005.333374
1091.600074	1994.333374
1092.161363	1980.333374
1092.722595	1982.333374
1093.283768	2013.333374
1093.844884	1990.333374
1094.405942	2008.333374
1095.527884	2015.0
1096.088768	1990.0
1096.649595	1997.666626
1097.210364	1982.0
1097.771074	1994.0
1098.331728	1998.0
1098.892323	2006.0
1099.45286	1987.666626
1100.01334	1981.0
1100.573762	1981.0
1101.134126	1983.333374
1101.694432	1966.666626
1102.25468	1972.0
1102.814871	1961.666626
1103.375004	1965.666626
1103.935079	1985.666626
1104.495096	1985.0
1105.055056	1966.666626
1105.614958	1966.333374
1106.174802	1946.333374
1107.294317	1948.666626
1107.853987	1961.0
1108.4136	1949.0
1108.973156	1942.0
1109.532653	1954.333374
1110.092093	1937.333374
1110.651475	1960.0
1111.2108	1942.666626
1111.770066	1949.333374
1112.329275	1947.0
1112.888426	1956.333374
1113.44752	1974.0
1114.006556	1949.333374
1114.565534	1933.333374
1115.124454	1965.333374
1115.683317	1951.333374
1116.242122	1942.0
1116.800869	1934.333374
1117.359559	1947.0
1117.918191	1920.666626
1118.476765	1947.333374
1119.035282	1947.666626
1119.593741	1922.666626
1120.152142	1936.666626
1120.710486	1937.666626
1121.268772	1932.0
1121.827	1940.666626
1122.385171	1929.333374
1122.943284	1961.0
1123.50134	1912.666626
1124.059337	1924.333374
1124.617277	1951.0
1125.17516	1950.666626
1125.732985	1939.666626
1126.290752	1958.666626
1126.848462	1945.333374
1127.406114	1939.0
1127.963709	1950.333374
1128.521245	1946.0
1129.078725	1942.333374
1129.636146	1929.333374
1130.193511	1945.666626
1130.750817	1929.0
1131.308066	1925.333374
1131.865257	1954.0
1132.422391	1952.0
1132.979467	1929.666626
1133.536486	1939.666626
1134.093447	1937.0
1134.650351	1929.0
1135.207197	1923.666626
1135.763985	1945.666626
1136.320716	1925.0
1136.877389	1929.666626
1137.434005	1940.666626
1137.990563	1953.333374
1138.547064	1939.333374
1139.103507	1948.666626
1139.659893	1943.333374
1140.216221	1933.666626
1140.772492	1959.0
1141.328705	1936.333374
1141.884861	1930.666626
1142.440959	1938.333374
1142.997	1935.333374
1143.552983	1946.666626
1144.108908	1939.666626
1144.664777	1923.333374
1145.220587	1916.333374
1145.776341	1956.666626
1146.332036	1941.0
1146.887675	1937.666626
1147.443256	1923.666626
1147.998779	1955.0
1148.554245	1943.333374
1149.109653	1928.333374
1149.665004	1935.0
1150.220298	1962.333374
1150.775534	1952.666626
1151.330713	1906.0
1151.885834	1934.666626
1152.440898	1942.333374
1152.995904	1949.666626
1153.550853	1930.666626
1154.105745	1937.0
1154.660579	1933.666626
1155.215356	1934.0
1155.770075	1948.333374
1156.324737	1945.0
1156.879341	1921.0
1157.433889	1951.666626
1157.988378	1934.333374
1158.542811	1932.333374
1159.097186	1926.666626
1159.651503	1948.333374
1160.205764	1938.0
1160.759966	1930.666626
1161.314112	1919.0
1161.8682	1953.666626
1162.422231	1950.666626
1162.976204	1931.666626
1163.53012	1948.666626
1164.083979	1932.333374
1164.637781	1944.0
1165.191525	1927.333374
1165.745211	1924.666626
1166.298841	1920.0
1166.852413	1929.0
1167.405928	1923.666626
1167.959385	1951.333374
1168.512785	1939.333374
1169.066128	1940.333374
1169.619413	1922.0
1170.725813	1932.333374
1171.278926	1925.666626
1171.831983	1903.666626
1172.384982	1924.333374
1172.937923	1940.0
1173.490808	1945.0
1174.043635	1958.0
1174.596405	1943.333374
1175.149118	1918.666626
1175.701773	1936.666626
1176.254371	1950.0
1176.806912	1933.0
1177.359396	1938.666626
1177.911822	1951.0
1178.464192	1940.0
1179.016503	1954.0
1179.568758	1942.333374
1180.120956	1937.333374
1180.673096	1945.0
1181.225179	1942.333374
1181.777205	1929.333374
1182.329173	1954.333374
1182.881085	1937.666626
1183.432939	1947.0
1183.984736	1925.666626
1184.536476	1913.666626
1185.088158	1952.666626
1185.639784	1928.333374
1186.191352	1916.333374
1186.742863	1941.333374
1187.294317	1922.0
1187.845713	1918.0
1188.397053	1920.666626
1188.948335	1949.333374
1189.499561	1919.333374
1190.050729	1913.0
1190.601839	1920.0
1191.152893	1919.333374
1191.70389	1938.666626
1192.254829	1936.0
1192.805712	1931.666626
1193.356537	1950.0
1193.907305	1914.666626
1194.458016	1930.0
1195.00867	1924.333374
1195.559266	1922.0
1196.109806	1960.666626
1196.660288	1926.666626
1197.210714	1933.333374
1197.761082	1932.333374
1198.311393	1931.0
1198.861647	1926.0
1199.411844	1928.333374
1199.961984	1906.0
1200.512067	1912.666626
1201.062092	1895.666626
1201.612061	1913.666626
1202.161973	1920.0
1202.711827	1924.333374
1203.261625	1914.0
1203.811365	1909.666626
1204.361048	1919.333374
1204.910675	1902.333374
1205.460244	1897.666626
1206.009756	1917.666626
1206.559211	1890.0
1207.10861	1900.666626
1207.657951	1919.0
1208.207235	1911.0
1208.756462	1900.333374
1209.305632	1892.333374
1209.854745	1903.333374
1210.403801	1899.666626
1210.9528	1917.333374
1211.501742	1883.333374
1212.050627	1907.333374
1212.599455	1878.333374
1213.148226	1909.333374
1213.69694	1896.0
1214.245597	1907.333374
1214.794197	1884.333374
1215.34274	1884.666626
1215.891227	1886.666626
1216.439656	1898.333374
1216.988028	1889.666626
1217.536343	1898.333374
1218.084602	1892.0
1218.632803	1915.0
1219.180947	1904.666626
1219.729035	1884.333374
1220.277065	1898.666626
1220.825039	1894.333374
1221.372956	1891.333374
1221.920815	1891.333374
1222.468618	1911.0
1223.016364	1873.0
1223.564053	1893.0
1224.111685	1900.333374
1224.65926	1894.333374
1225.206779	1861.666626
1225.75424	1874.0
1226.301645	1900.666626
1226.848992	1908.666626
1227.396283	1879.333374
1227.943517	1882.0
1228.490694	1896.0
1229.037814	1891.666626
1229.584877	1875.0
1230.131883	1868.0
1230.678833	1875.0
1231.225725	1874.0
1231.772561	1883.0
1232.31934	1870.666626
1232.866062	1899.666626
1233.412727	1876.666626
1233.959336	1879.333374
1234.505887	1890.333374
1235.052382	1870.0
1235.59882	1879.666626
1236.145201	1889.666626
1236.691525	1878.666626
1237.237793	1881.0
1237.784003	1866.666626
1238.330157	1897.666626
1238.876254	1878.666626
1239.422295	1879.333374
1239.968278	1889.666626
1240.514205	1882.0
1241.060074	1892.333374
1241.605888	1857.0
1242.151644	1894.333374
1242.697343	1890.0
1243.242986	1874.333374
1243.788572	1888.0
1244.334101	1907.0
1244.879574	1898.0
1245.42499	1865.0
1245.970349	1865.333374
1246.515651	1881.333374
1247.060896	1880.0
1247.606085	1869.333374
1248.151217	1884.666626
1248.696292	1889.666626
1249.241311	1866.666626
1249.786273	1881.0
1250.331178	1884.666626
1250.876026	1876.666626
1251.420818	1881.333374
1251.965553	1851.333374
1252.510231	1875.666626
1253.054853	1868.333374
1253.599418	1903.333374
1254.143926	1896.333374
1254.688377	1875.0
1255.232772	1890.333374
1255.77711	1894.666626
1256.321392	1880.333374
1256.865617	1850.0
1257.409785	1895.0
1257.953896	1892.0
1258.497951	1867.333374
1259.041949	1893.0
1260.129776	1899.666626
1260.673604	1887.666626
1261.217375	1864.666626
1261.76109	1861.0
1262.304749	1888.666626
1262.84835	1845.333374
1263.391896	1851.333374
1263.935384	1858.666626
1264.478816	1877.0
1265.022191	1899.333374
1265.56551	1847.0
1266.108772	1874.333374
1266.651977	1879.333374
1267.195126	1865.333374
1267.738218	1875.0
1268.281254	1878.333374
1268.824233	1884.666626
1269.367155	1861.0
1269.910021	1873.666626
1270.452831	1854.666626
1270.995583	1867.333374
1271.53828	1869.333374
1272.080919	1839.666626
1272.623502	1878.666626
1273.166029	1853.333374
1273.708499	1870.333374
1274.250912	1859.666626
1274.793269	1851.333374
1275.33557	1887.666626
1275.877814	1858.666626
1276.420001	1864.333374
1276.962132	1843.333374
1277.504206	1861.333374
1278.046224	1868.666626
1278.588185	1868.666626
1279.13009	1839.0
1279.671938	1865.0
1280.21373	1839.666626
1280.755465	1878.666626
1281.297144	1846.0
1281.838766	1854.666626
1282.380332	1875.666626
1282.921841	1835.0
1283.463294	1837.666626
1284.004691	1870.0
1284.546031	1865.0
1285.087314	1871.333374
1285.628541	1853.0
1286.169711	1863.333374
1286.710826	1859.0
1287.251883	1846.0
1287.792884	1878.666626
1288.333829	1856.666626
1288.874717	1868.0
1289.415549	1840.333374
1289.956325	1862.0
1290.497044	1858.333374
1291.037706	1854.333374
1291.578313	1873.0
1292.118862	1851.0
1292.659356	1859.666626
1293.199793	1872.333374
1293.740173	1868.333374
1294.280498	1865.0
1294.820765	1852.333374
1295.360977	1859.333374
1295.901132	1868.666626
1296.44123	1851.0
1296.981273	1856.333374
1297.521259	1837.0
1298.061188	1849.0
1298.601061	1864.333374
1299.140878	1838.333374
1299.680639	1859.666626
1300.220343	1845.333374
1300.75999	1848.0
1301.299582	1856.666626
1301.839117	1865.666626
1302.378596	1844.666626
1302.918018	1845.333374
1303.457384	1843.333374
1303.996694	1871.666626
1304.535947	1849.666626
1305.075145	1886.666626
1305.614285	1873.333374
1306.15337	1838.333374
1306.692398	1845.333374
1307.23137	1853.0
1307.770286	1857.0
1308.309145	1848.0
1308.847948	1843.333374
1309.386695	1854.333374
1309.925385	1849.0
1310.464019	1818.666626
1311.002597	1846.333374
1311.541119	1860.666626
1312.079584	1869.333374
1312.617993	1840.666626
1313.156346	1851.333374
1313.694643	1845.666626
1314.232883	1845.666626
1314.771067	1840.333374
1315.309195	1843.0
1315.847267	1846.0
1316.385282	1830.0
1316.923241	1844.666626
1317.461144	1852.333374
1317.998991	1824.333374
1318.536782	1860.333374
1319.074516	1851.0
1319.612194	1836.0
1320.149816	1836.333374
1320.687382	1839.666626
1321.224891	1847.0
1321.762344	1844.333374
1322.299742	1841.333374
1322.837083	1831.0
1323.374367	1841.666626
1323.911596	1853.333374
1324.448768	1866.666626
1324.985885	1836.0
1325.522945	1840.666626
1326.059949	1835.0
1326.596896	1855.0
1327.133788	1852.666626
1327.670623	1847.333374
1328.207403	1846.666626
1328.744126	1809.333374
1329.280793	1842.666626
1329.817404	1849.333374
1330.353959	1814.333374
1330.890457	1816.666626
1331.4269	1856.333374
1331.963286	1832.333374
1332.499617	1814.333374
1333.035891	1825.0
1333.572109	1833.333374
1334.108271	1821.666626
1334.644377	1822.666626
1335.180427	1822.333374
1335.71642	1819.333374
1336.252358	1834.0
1336.78824	1828.666626
1337.324065	1826.0
1337.859834	1833.666626
1338.395548	1839.0
1338.931205	1827.0
1339.466806	1833.666626
1340.002351	1822.666626
1340.537841	1826.333374
1341.073274	1824.333374
1341.608651	1845.666626
1342.143972	1832.0
1342.679236	1834.333374
1343.214445	1838.0
1343.749598	1851.0
1344.284695	1817.666626
1344.819736	1837.0
1345.354721	1835.0
1345.88965	1839.0
1346.424522	1822.333374
1346.959339	1817.333374
1347.4941	1832.333374
1348.028805	1827.666626
1348.563453	1839.333374
1349.098046	1829.333374
1349.632583	1843.0
1350.167064	1841.333374
1350.701489	1855.666626
1351.235858	1828.333374
1351.770171	1843.333374
1352.304428	1836.0
1352.838629	1804.0
1353.372774	1806.0
1353.906863	1815.666626
1354.440896	1819.666626
1354.974873	1831.333374
1355.508794	1851.0
1356.04266	1843.333374
1356.576469	1824.0
1357.110222	1818.666626
1357.64392	1842.0
1358.177561	1835.333374
1358.711147	1847.333374
1359.244677	1810.666626
1359.778151	1826.666626
1360.311569	1833.0
1360.844931	1854.333374
1361.378237	1828.666626
1361.911487	1835.333374
1362.444682	1809.666626
1362.97782	1861.0
1363.510903	1839.0
1364.043929	1841.333374
1364.5769	1821.333374
1365.109815	1825.0
1365.642674	1827.666626
1366.175478	1844.666626
1366.708225	1836.666626
1367.240917	1812.0
1367.773552	1830.333374
1368.306132	1827.0
1368.838656	1814.0
1369.371124	1818.0
1369.903537	1813.0
1370.435893	1823.0
1370.968194	1826.666626
1371.500439	1817.666626
1372.032628	1825.0
1372.564761	1789.333374
1373.096838	1832.666626
1373.62886	1819.333374
1374.160826	1814.333374
1374.692736	1814.333374
1375.22459	1817.333374
1375.756388	1820.0
1376.288131	1798.0
1376.819818	1827.666626
1377.351449	1827.666626
1377.883024	1806.333374
1378.414544	1784.666626
1378.946008	1819.666626
1379.477416	1795.0
1380.008768	1796.0
1380.540064	1796.0
1381.071305	1793.666626
1381.60249	1787.0
1382.133619	1816.0
1382.664693	1809.0
1383.195711	1807.333374
1383.726673	1793.0
1384.257579	1800.0
1384.78843	1816.0
1385.319224	1797.0
1385.849964	1817.0
1386.380647	1776.0
1386.911275	1812.666626
1387.441847	1817.333374
1387.972363	1794.333374
1388.502824	1799.666626
1389.033229	1821.333374
1389.563578	1788.333374
1390.093872	1797.666626
1390.62411	1795.0
1391.154292	1810.666626
1391.684419	1778.666626
1392.214489	1789.0
1392.744505	1796.333374
1393.274464	1797.666626
1393.804368	1800.0
1394.334216	1803.666626
1394.864009	1795.666626
1395.393746	1785.333374
1395.923427	1785.0
1396.453053	1795.0
1396.982623	1793.666626
1397.512138	1787.0
1398.041597	1792.0
1398.571	1777.333374
1399.100347	1813.666626
1399.629639	1794.333374
1400.158876	1801.0
1400.688056	1789.666626
1401.217182	1813.666626
1401.746251	1796.0
1402.275265	1798.666626
1402.804224	1780.666626
1403.333126	1809.0
1403.861974	1773.666626
1404.390765	1785.0
1404.919501	1798.333374
1405.448182	1790.666626
1405.976807	1807.0
1406.505376	1782.0
1407.03389	1790.666626
1407.562349	1796.666626
1408.090751	1795.0
1408.619098	1796.0
1409.14739	1800.333374
1409.675626	1775.333374
1410.203807	1792.0
1410.731932	1776.0
1411.260001	1800.666626
1411.788015	1808.333374
1412.315974	1798.0
1412.843877	1813.333374
1413.371725	1798.0
1413.899516	1778.0
1414.427253	1782.0
1414.954934	1819.333374
1415.482559	1792.666626
1416.010129	1788.333374
1416.537644	1784.0
1417.065103	1783.666626
1417.592507	1799.666626
1418.119855	1812.333374
1418.647147	1797.666626
1419.174385	1807.0
1419.701566	1795.666626
1420.228692	1777.666626
1420.755763	1770.333374
1421.282779	1770.666626
1421.809739	1792.666626
1422.336643	1778.0
1422.863492	1776.333374
1423.390286	1796.333374
1423.917024	1769.666626
1424.443707	1791.333374
1424.970334	1772.333374
1425.496906	1819.0
1426.023422	1793.666626
1426.549883	1810.333374
1427.076289	1775.333374
1427.602639	1795.333374
1428.128934	1787.0
1428.655174	1787.333374
1429.181358	1787.333374
1429.707486	1790.0
1430.23356	1760.333374
1430.759578	1779.666626
1431.28554	1781.666626
1431.811448	1796.0
1432.337299	1795.0
1432.863096	1786.333374
1433.388837	1788.666626
1433.914523	1778.0
1434.440153	1785.666626
1434.965728	1786.666626
1435.491248	1801.333374
1436.016712	1768.666626
1436.542122	1806.0
1437.067475	1799.666626
1437.592774	1768.333374
1438.118017	1786.333374
1438.643205	1763.666626
1439.168337	1795.666626
1439.693414	1767.666626
1440.218436	1784.666626
1440.743403	1779.0
1441.268314	1762.0
1441.79317	1779.666626
1442.31797	1767.333374
1442.842716	1769.0
1443.367406	1781.666626
1443.892041	1791.333374
1444.41662	1777.333374
1444.941145	1773.666626
1445.465614	1768.333374
1445.990027	1768.333374
1446.514386	1766.666626
1447.038689	1757.666626
1447.562937	1805.0
1448.08713	1777.0
1448.611267	1776.0
1449.13535	1764.0
1449.659377	1779.333374
1450.183348	1778.0
1450.707265	1775.0
1451.231126	1789.666626
1451.754932	1781.333374
1452.278683	1777.333374
1452.802379	1759.666626
1453.32602	1757.333374
1453.849605	1766.666626
1454.373135	1759.333374
1454.89661	1754.666626
1455.42003	1770.666626
1455.943394	1786.0
1456.466703	1785.333374
1456.989958	1761.0
1457.513157	1796.0
1458.0363	1784.333374
1458.559389	1751.666626
1459.082423	1787.666626
1459.605401	1769.666626
1460.128324	1763.666626
1460.651192	1769.0
1461.174005	1762.0
1461.696763	1785.333374
1462.219465	1777.0
1462.742113	1753.0
1463.264705	1778.333374
1463.787242	1785.0
1464.309724	1766.333374
1464.832151	1769.333374
1465.354523	1767.333374
1465.87684	1761.333374
1466.399102	1755.0
1466.921308	1751.333374
1467.443459	1784.666626
1467.965556	1756.0
1468.487597	1761.666626
1469.009583	1759.0
1469.531514	1775.333374
1470.05339	1771.0
1470.575211	1752.333374
1471.096977	1768.666626
1471.618688	1761.333374
1472.140343	1759.0
1472.661944	1749.0
1473.18349	1773.0
1473.70498	1768.333374
1474.226416	1763.666626
1474.747796	1772.333374
1475.269122	1740.666626
1475.790392	1747.333374
1476.311607	1749.666626
1476.832768	1787.0
1477.353873	1756.666626
1477.874923	1747.666626
1478.395918	1752.0
1478.916859	1762.666626
1479.437744	1777.0
1479.958574	1773.666626
1480.479349	1771.666626
1481.00007	1785.333374
1481.520735	1751.666626
1482.041345	1749.333374
1482.5619	1755.333374
1483.082401	1740.333374
1483.602846	1733.333374
1484.123236	1745.666626
1484.643572	1744.666626
1485.163852	1733.333374
1485.684077	1762.333374
1486.204248	1754.666626
1486.724363	1746.0
1487.244424	1759.333374
1487.76443	1753.666626
1488.28438	1729.666626
1488.804276	1744.333374
1489.324117	1733.0
1489.843903	1749.666626
1490.363634	1761.666626
1490.88331	1770.0
1491.402931	1784.0
1491.922497	1740.333374
1492.442008	1759.666626
1492.961465	1730.0
1493.480866	1729.333374
1494.000213	1731.0
1494.519505	1745.666626
1495.038741	1749.0
1495.557923	1749.666626
1496.07705	1747.0
1496.596122	1745.666626
1497.11514	1741.666626
1497.634102	1730.333374
1498.15301	1750.0
1498.671862	1756.666626
1499.19066	1737.666626
1499.709403	1761.0
1500.228091	1750.333374
1500.746725	1746.666626
1501.265303	1755.0
1501.783827	1776.0
1502.302296	1741.666626
1502.820709	1771.333374
1503.339069	1751.0
1503.857373	1736.0
1504.375622	1749.333374
1504.893817	1732.333374
1505.411957	1740.0
1505.930042	1757.0
1506.448072	1738.333374
1506.966048	1750.0
1507.483968	1724.666626
1508.001834	1721.666626
1508.519645	1757.666626
1509.037401	1748.333374
1509.555103	1731.333374
1510.07275	1745.0
1510.590342	1762.333374
1511.107879	1725.666626
1511.625361	1724.333374
1512.142789	1736.0
1512.660162	1752.0
1513.17748	1737.0
1513.694743	1753.0
1514.211952	1749.333374
1514.729106	1743.333374
1515.246205	1737.333374
1515.76325	1727.0
1516.280239	1725.666626
1516.797174	1729.666626
1517.314055	1739.333374
1517.83088	1754.333374
1518.347651	1745.333374
1518.864367	1716.333374
1519.381029	1735.666626
1519.897635	1721.0
1520.414187	1746.333374
1520.930685	1741.0
1521.447127	1753.333374
1521.963515	1718.666626
1522.479849	1723.333374
1522.996127	1730.333374
1523.512351	1747.333374
1524.028521	1730.666626
1524.544635	1710.666626
1525.060695	1735.666626
1525.576701	1725.666626
1526.092651	1724.333374
1526.608547	1732.666626
1527.124389	1739.333374
1527.640175	1728.333374
1528.155907	1726.0
1528.671585	1722.0
1529.187208	1718.666626
1529.702776	1737.666626
1530.218289	1734.666626
1530.733748	1730.666626
1531.249153	1723.666626
1531.764502	1712.333374
1532.279798	1738.0
1532.795038	1739.666626
1533.310224	1740.333374
1533.825355	1736.333374
1534.340432	1731.0
1534.855454	1749.333374
1535.370422	1725.333374
1535.885335	1729.666626
1536.400193	1702.0
1536.914997	1727.666626
1537.429746	1734.0
1537.944441	1723.666626
1538.459081	1735.0
1538.973667	1736.333374
1539.488198	1708.333374
1540.002674	1725.666626
1540.517096	1748.666626
1541.031464	1741.0
1541.545777	1733.333374
1542.060035	1721.666626
1542.574239	1723.333374
1543.088388	1714.333374
1543.602483	1720.0
1544.116523	1745.666626
1544.630509	1725.0
1545.14444	1720.666626
1545.658317	1714.0
1546.685907	1726.333374
1547.19962	1729.333374
1547.713279	1713.666626
1548.226883	1765.0
1548.740433	1736.666626
1549.253929	1738.666626
1549.76737	1742.0
1550.280756	1722.333374
1550.794088	1741.666626
1551.307365	1724.666626
1551.820588	1738.0
1552.333757	1750.333374
1552.846871	1720.333374
1553.359931	1732.666626
1553.872936	1727.333374
1554.385887	1746.333374
1554.898783	1707.333374
1555.411625	1716.333374
1555.924413	1725.333374
1556.437146	1736.666626
1556.949824	1716.0
1557.462449	1726.333374
1557.975019	1726.666626
1558.487534	1728.0
1558.999995	1753.0
1559.512402	1727.333374
1560.024754	1745.333374
1560.537052	1726.0
1561.049295	1741.0
1561.561485	1722.0
1562.073619	1738.0
1562.5857	1721.333374
1563.097726	1706.333374
1564.121615	1722.666626
1564.633477	1716.666626
1565.145286	1736.0
1565.65704	1741.666626
1566.16874	1715.333374
1566.680386	1730.0
1567.191977	1716.666626
1568.214996	1704.0
1568.726424	1712.333374
1569.237798	1712.666626
1569.749118	1725.666626
1570.260383	1743.666626
1570.771594	1741.333374
1571.28275	1735.333374
1571.793853	1699.333374
1572.304901	1729.333374
1572.815895	1749.0
1573.326834	1735.333374
1573.837719	1732.0
1574.34855	1729.333374
1574.859327	1732.333374
1575.370049	1738.666626
1575.880717	1726.0
1576.391331	1708.0
1577.412395	1720.333374
1577.922846	1726.666626
1578.433243	1737.0
1578.943586	1733.333374
1579.453874	1735.666626
1579.964108	1702.666626
1580.474288	1729.0
1580.984413	1721.333374
1581.494484	1726.666626
1582.004501	1726.333374
1582.514464	1724.0
1583.024373	1717.333374
1583.534227	1740.666626
1584.044028	1709.333374
1584.553774	1709.0
1585.063465	1718.333374
1585.573103	1727.666626
1586.082687	1726.666626
1586.592216	1706.333374
1587.101691	1716.333374
1587.611112	1714.666626
1588.120478	1743.666626
1588.629791	1708.666626
1589.139049	1736.0
1589.648253	1716.0
1590.157403	1727.333374
1590.666499	1724.0
1591.175541	1708.666626
1591.684529	1713.333374
