1042.452273	700.5999756
1043.018714	698.5999756
1043.585098	693.0
1044.151424	697.7999878
1044.717692	698.2000122
1045.283903	697.5999756
1045.850056	692.7999878
1046.416151	696.4000244
1046.982188	689.4000244
1047.548167	692.4000244
1048.114089	692.4000244
1048.679953	688.0
1049.24576	690.0
1049.811509	692.4000244
1050.3772	690.2000122
1050.942833	691.2000122
1051.508408	689.7999878
1052.073926	688.0
1052.639387	688.7999878
1053.204789	688.7999878
1053.770134	687.0
1054.335421	688.0
1054.900651	688.4000244
1055.465823	689.0
1056.030937	685.0
1056.595993	686.5999756
1057.160992	690.2000122
1057.725934	689.2000122
1058.290817	686.7999878
1058.855643	686.2000122
1059.420411	686.7999878
1059.985122	686.7999878
1060.549775	686.5999756
1061.114371	684.5999756
1061.678908	684.4000244
1062.243389	687.0
1062.807811	688.7999878
1063.372176	684.0
1063.936483	685.5999756
1064.500733	685.0
1065.064925	688.2000122
1065.62906	686.2000122
1066.193137	686.4000244
1066.757156	685.4000244
1067.321118	684.4000244
1067.885022	685.2000122
1068.448869	686.4000244
1069.012658	685.4000244
1069.57639	686.2000122
1070.140063	687.2000122
1070.70368	683.5999756
1071.267239	686.4000244
1071.83074	682.5999756
1072.394184	681.0
1072.95757	686.4000244
1073.520899	686.4000244
1074.08417	683.5999756
1074.647383	685.2000122
1075.21054	683.7999878
1075.773638	687.0
1076.336679	683.0
1076.899663	683.5999756
1077.462589	684.5999756
1078.025457	685.5999756
1078.588268	685.0
1079.151022	682.2000122
1079.713718	684.0
1080.276356	683.2000122
1080.838937	682.4000244
1081.401461	683.7999878
1081.963927	683.0
1082.526336	685.2000122
1083.088687	682.4000244
1083.650981	682.5999756
1084.213217	684.0
1084.775396	681.2000122
1085.337517	682.4000244
1085.899581	685.2000122
1086.461587	686.4000244
1087.023536	683.5999756
1087.585428	685.4000244
1088.147262	684.0
1088.709039	683.2000122
1089.270758	684.4000244
1089.83242	681.7999878
1090.394024	683.0
1090.955571	684.2000122
1091.517061	682.0
1092.078493	682.0
1092.639868	683.7999878
1093.201185	683.0
1093.762445	683.4000244
1094.323648	682.7999878
1094.884793	684.4000244
1095.445881	682.7999878
1096.006911	681.4000244
1096.567884	689.4000244
1097.1288	685.0
1097.689659	685.0
1098.25046	682.4000244
1098.811203	685.2000122
1099.37189	683.7999878
1099.932518	686.2000122
1100.49309	685.4000244
1101.053604	681.4000244
1101.614061	683.7999878
1102.174461	687.7999878
1102.734803	684.5999756
1103.295088	685.7999878
1103.855316	681.2000122
1104.415486	682.4000244
1104.975599	684.4000244
1105.535655	686.0
1106.095653	682.7999878
1106.655594	685.0
1107.215478	683.7999878
1107.775305	686.2000122
1108.335074	683.7999878
1108.894786	684.5999756
1109.45444	683.0
1110.014038	682.0
1110.573578	684.4000244
1111.133061	688.7999878
1111.692486	687.4000244
1112.251854	688.5999756
1112.811165	683.0
1113.370419	684.4000244
1113.929616	686.2000122
1114.488755	688.2000122
1115.047837	685.7999878
1115.606862	684.2000122
1116.16583	682.2000122
1116.72474	683.2000122
1117.283593	687.0
1117.842389	683.7999878
1118.401128	688.0
1118.959809	681.4000244
1119.518433	684.5999756
1120.077	683.5999756
1120.63551	681.5999756
1121.193963	681.7999878
1121.752358	682.7999878
1122.310697	683.0
1122.868978	683.7999878
1123.427202	682.0
1123.985368	684.7999878
1124.543478	686.0
1125.10153	685.4000244
1125.659526	683.7999878
1126.217464	683.5999756
1126.775345	681.5999756
1127.333168	682.5999756
1127.890935	683.0
1128.448644	685.0
1129.006297	683.5999756
1129.563892	682.2000122
1130.12143	680.2000122
1130.678911	679.7999878
1131.236335	683.5999756
1131.793701	682.0
1132.351011	681.2000122
1132.908263	683.5999756
1133.465458	681.7999878
1134.022597	682.7999878
1134.579678	683.2000122
1135.136702	680.5999756
1135.693669	683.7999878
1136.250578	680.5999756
1136.807431	680.7999878
1137.364227	682.5999756
1137.920965	683.7999878
1138.477647	680.4000244
1139.034271	680.7999878
1139.590839	683.4000244
1140.147349	679.4000244
1140.703802	682.7999878
1141.260198	681.2000122
1141.816537	683.4000244
1142.37282	680.2000122
1142.929045	681.0
1143.485213	685.4000244
1144.041323	682.2000122
1144.597377	681.7999878
1145.153374	683.5999756
1145.709314	683.0
1146.265197	682.5999756
1146.821023	681.7999878
1147.376792	682.7999878
1147.932503	686.0
1148.488158	681.4000244
1149.043756	684.4000244
1149.599297	686.2000122
1150.154781	681.7999878
1150.710207	686.2000122
1151.265577	686.5999756
1151.82089	683.7999878
1152.376146	682.2000122
1152.931345	682.2000122
1153.486487	687.2000122
1154.041572	682.5999756
1154.5966	683.5999756
1155.151571	680.4000244
1155.706485	682.7999878
1156.261342	683.2000122
1156.816142	683.5999756
1157.370885	684.5999756
1157.925572	680.5999756
1158.480201	682.7999878
1159.034774	682.5999756
1159.589289	680.5999756
1160.143748	681.5999756
1160.698149	686.0
1161.252494	681.0
1161.806782	681.2000122
1162.361013	681.7999878
1162.915187	683.4000244
1163.469304	680.0
1164.023364	679.5999756
1164.577368	681.5999756
1165.131314	686.5999756
1165.685204	682.7999878
1166.239036	680.5999756
1166.792812	681.7999878
1167.346531	683.4000244
1167.900193	680.2000122
1168.453798	683.4000244
1169.007347	681.4000244
1169.560838	681.2000122
1170.114273	681.0
1170.66765	684.0
1171.220971	681.0
1171.774235	680.2000122
1172.327443	684.5999756
1172.880593	685.0
1173.433687	683.5999756
1173.986723	684.2000122
1174.539703	680.4000244
1175.092626	683.0
1175.645493	680.7999878
1176.198302	682.2000122
1176.751055	680.7999878
1177.303751	679.2000122
1177.85639	682.4000244
1178.408972	683.2000122
1178.961498	683.2000122
1179.513966	684.0
1180.066378	683.2000122
1180.618733	683.4000244
1181.171032	684.7999878
1181.723273	681.5999756
1182.275458	684.0
1182.827586	680.2000122
1183.379657	685.7999878
1183.931672	680.5999756
1184.48363	684.2000122
1185.035531	682.5999756
1185.587375	683.2000122
1186.139162	685.2000122
1186.690893	683.7999878
1187.242567	683.2000122
1187.794184	680.0
1188.345745	685.7999878
1188.897249	682.4000244
1189.448696	682.5999756
1190.000086	682.0
1190.55142	682.0
1191.102697	682.7999878
1191.653918	684.0
1192.205081	683.0
1192.756188	679.4000244
1193.858232	682.4000244
1194.409169	682.7999878
1194.960049	683.0
1195.510872	679.4000244
1196.061639	679.2000122
1196.612349	680.4000244
1197.163003	683.0
1197.713599	683.4000244
1198.264139	684.2000122
1198.814623	681.4000244
1199.36505	680.4000244
1199.91542	680.7999878
1200.465734	681.0
1201.01599	686.4000244
1201.566191	680.4000244
1202.116334	680.4000244
1202.666421	676.0
1203.216452	680.7999878
1203.766425	680.7999878
1204.316343	683.0
1204.866203	681.0
1205.416007	683.4000244
1205.965754	683.0
1206.515445	681.2000122
1207.065079	683.2000122
1207.614657	680.5999756
1208.164177	681.0
1208.713642	677.2000122
1209.26305	681.0
1209.812401	682.4000244
1210.361695	680.7999878
1210.910933	682.7999878
1211.460115	682.7999878
1212.00924	683.4000244
1212.558308	685.7999878
1213.10732	681.0
1213.656275	683.5999756
1214.205174	681.0
1214.754016	681.5999756
1215.302801	683.4000244
1215.85153	682.7999878
1216.400203	680.5999756
1216.948819	683.0
1217.497378	685.2000122
1218.045881	683.7999878
1218.594327	680.5999756
1219.142717	679.0
1219.691051	681.2000122
1220.239327	683.5999756
1220.787548	680.7999878
1221.335712	684.7999878
1221.883819	682.2000122
1222.43187	684.7999878
1222.979864	680.2000122
1223.527802	683.2000122
1224.075683	680.7999878
1224.623508	680.4000244
1225.171277	681.4000244
1225.718989	682.2000122
1226.266644	683.5999756
1226.814243	682.7999878
1227.361786	682.4000244
1227.909272	680.5999756
1228.456702	681.5999756
1229.004075	683.0
1229.551392	684.4000244
1230.098652	682.5999756
1230.645856	682.7999878
1231.193003	681.4000244
1231.740094	685.0
1232.287129	682.7999878
1232.834107	681.7999878
1233.381029	681.7999878
1233.927894	685.2000122
1234.474703	683.4000244
1235.021455	687.0
1235.568151	681.0
1236.114791	683.5999756
1236.661374	681.4000244
1237.207901	683.7999878
1237.754372	684.0
1238.300786	679.2000122
1238.847144	680.0
1239.393445	681.2000122
1239.93969	682.4000244
1240.485879	685.0
1241.032011	683.7999878
1241.578087	680.0
1242.124106	681.0
1242.67007	680.0
1243.215976	682.7999878
1243.761827	683.2000122
1244.307621	680.7999878
1244.853359	685.4000244
1245.39904	681.7999878
1245.944665	680.2000122
1246.490234	685.2000122
1247.035746	680.5999756
1247.581203	679.5999756
1248.126602	681.7999878
1248.671946	684.7999878
1249.217233	680.5999756
1249.762464	681.4000244
1250.307638	686.0
1250.852757	678.7999878
1251.397819	679.5999756
1251.942824	681.7999878
1252.487774	680.7999878
1253.032667	679.4000244
1253.577503	680.7999878
1254.122284	683.2000122
1254.667008	682.0
1255.211676	680.5999756
1255.756288	682.5999756
1256.300843	683.7999878
1256.845342	682.2000122
1257.389785	681.2000122
1257.934172	683.5999756
1258.478502	684.2000122
1259.022776	681.0
1259.566994	682.2000122
1260.111156	688.4000244
1260.655261	683.7999878
1261.199311	683.0
1261.743304	684.5999756
1262.28724	683.7999878
1262.831121	680.5999756
1263.374945	683.2000122
1263.918713	681.4000244
1264.462425	683.7999878
1265.006081	677.7999878
1265.54968	686.7999878
1266.093223	680.5999756
1266.636711	682.2000122
1267.180141	680.0
1267.723516	682.5999756
1268.266835	682.7999878
1268.810097	679.2000122
1269.353303	681.4000244
1269.896453	681.0
1270.439547	683.5999756
1270.982584	680.0
1271.525566	679.5999756
1272.068491	678.0
1272.61136	680.7999878
1273.154173	678.4000244
1273.69693	680.7999878
1274.239631	679.7999878
1274.782275	681.2000122
1275.324864	681.7999878
1275.867396	681.5999756
1276.409872	683.4000244
1276.952292	679.2000122
1277.494656	681.2000122
1278.036964	679.7999878
1278.579215	679.0
1279.121411	681.7999878
1279.66355	678.7999878
1280.205634	677.7999878
1280.747661	680.5999756
1281.289632	679.0
1281.831547	679.4000244
1282.373406	682.2000122
1282.915209	681.2000122
1283.456955	679.5999756
1283.998646	683.0
1284.540281	682.0
1285.081859	683.7999878
1285.623381	696.0
1286.164848	710.5999756
1286.706258	689.2000122
1287.247612	679.7999878
1287.788911	683.5999756
1288.330153	682.4000244
1288.871339	687.2000122
1289.412469	679.0
1289.953543	679.7999878
1290.494561	681.2000122
1291.035523	680.4000244
1291.576428	684.2000122
1292.117278	681.7999878
1292.658072	681.4000244
1293.19881	683.0
1293.739492	681.5999756
1294.280118	682.0
1294.820687	683.0
1295.361201	678.5999756
1295.901659	679.0
1296.442061	684.2000122
1296.982406	680.4000244
1297.522696	680.4000244
1298.06293	680.2000122
1298.603108	679.2000122
1299.143229	679.4000244
1299.683295	681.5999756
1300.223305	682.5999756
1300.763259	680.5999756
1301.303157	683.2000122
1301.842999	680.2000122
1302.382785	679.2000122
1302.922515	682.0
1303.462189	680.4000244
1304.001807	682.4000244
1304.541369	683.4000244
1305.080875	682.4000244
1305.620326	681.0
1306.15972	681.7999878
1306.699058	682.2000122
1307.238341	683.0
1307.777567	679.5999756
1308.316738	680.2000122
1308.855853	681.2000122
1309.394912	675.5999756
1309.933915	680.5999756
1310.472862	681.4000244
1311.011753	679.7999878
1311.550588	680.4000244
1312.089367	679.2000122
1312.62809	682.7999878
1313.166758	679.2000122
1313.70537	681.0
1314.243925	683.2000122
1314.782425	678.0
1315.320869	682.5999756
1315.859257	680.2000122
1316.397589	680.2000122
1316.935866	679.4000244
1317.474086	681.4000244
1318.012251	680.2000122
1318.55036	680.4000244
1319.088413	679.2000122
1319.62641	680.2000122
1320.164351	681.0
1320.702236	678.5999756
1321.240066	680.7999878
1321.777839	678.2000122
1322.315557	678.7999878
1322.853219	681.4000244
1323.390826	678.4000244
1323.928376	684.5999756
1324.465871	681.0
1325.003309	681.5999756
1325.540692	680.2000122
1326.07802	680.0
1326.615291	679.2000122
1327.152506	678.2000122
1327.689666	678.7999878
1328.22677	679.2000122
1328.763818	677.7999878
1329.300811	682.0
1329.837747	681.2000122
1330.374628	679.7999878
1330.911453	682.4000244
1331.448222	686.7999878
1331.984936	681.4000244
1332.521594	679.4000244
1333.058196	679.5999756
1333.594742	680.5999756
1334.131232	679.7999878
1334.667667	679.7999878
1335.204046	677.4000244
1335.740369	680.0
1336.276637	680.7999878
1336.812848	676.5999756
1337.349004	681.5999756
1337.885105	679.4000244
1338.421149	676.2000122
1338.957138	678.0
1339.493071	682.4000244
1340.028949	679.7999878
1340.56477	682.0
1341.100536	683.4000244
1341.636246	677.4000244
1342.171901	678.7999878
1342.7075	679.0
1343.243043	681.5999756
1343.77853	682.0
1344.313962	682.7999878
1344.849338	676.4000244
1345.384659	677.4000244
1345.919923	681.5999756
1346.455133	681.2000122
1346.990286	679.7999878
1347.525384	680.0
1348.060426	678.7999878
1348.595412	678.5999756
1349.130343	680.7999878
1349.665218	679.2000122
1350.200037	679.2000122
1350.734801	677.0
1351.269509	675.5999756
1351.804162	677.2000122
1352.338758	680.5999756
1352.8733	677.2000122
1353.407785	679.0
1353.942215	681.2000122
1354.476589	678.5999756
1355.010908	680.2000122
1355.545171	679.4000244
1356.079379	682.4000244
1356.61353	680.2000122
1357.147627	682.4000244
1357.681667	678.7999878
1358.215652	679.4000244
1358.749582	682.0
1359.283456	682.7999878
1359.817274	679.5999756
1360.351037	680.0
1360.884744	682.0
1361.418395	679.0
1361.951991	681.5999756
1362.485531	678.0
1363.019016	678.4000244
1363.552445	680.5999756
1364.085819	684.5999756
1364.619137	678.0
1365.1524	681.2000122
1365.685607	679.7999878
1366.218758	677.5999756
1366.751854	681.2000122
1367.284894	683.7999878
1367.817879	682.4000244
1368.350808	679.7999878
1368.883682	680.0
1369.4165	680.7999878
1369.949263	681.7999878
1370.48197	678.0
1371.014622	683.5999756
1371.547218	677.2000122
1372.079758	680.4000244
1372.612244	677.4000244
1373.144673	680.2000122
1373.677047	679.0
1374.209366	676.5999756
1374.741629	680.0
1375.273836	678.5999756
1375.805989	683.2000122
1376.338085	679.5999756
1376.870126	677.4000244
1377.402112	677.2000122
1377.934042	680.2000122
1378.465917	678.0
1378.997736	679.0
1379.5295	680.4000244
1380.061208	677.0
1380.592861	682.5999756
1381.124459	680.7999878
1381.656	676.7999878
1382.187487	675.5999756
1382.718918	680.4000244
1383.250294	680.2000122
1383.781614	677.0
1384.312879	678.4000244
1384.844088	679.7999878
1385.375242	677.4000244
1385.90634	676.4000244
1386.437383	680.0
1386.968371	680.2000122
1387.499303	682.0
1388.03018	683.0
1388.561001	693.0
1389.091767	726.7999878
1389.622478	707.2000122
1390.153133	685.0
1390.683733	680.2000122
1391.214277	680.7999878
1391.744766	678.5999756
1392.2752	683.4000244
1392.805578	682.7999878
1393.335901	681.4000244
1393.866168	681.0
1394.396381	680.0
1394.926537	679.7999878
1395.456639	682.0
1395.986685	679.4000244
1396.516675	678.0
1397.046611	679.0
1397.576491	678.4000244
1398.106315	677.5999756
1398.636084	680.0
1399.165798	679.0
1399.695457	681.2000122
1400.22506	679.5999756
1400.754608	679.4000244
1401.284101	684.5999756
1401.813538	682.5999756
1402.34292	681.7999878
1402.872247	677.4000244
1403.401518	680.2000122
1403.930734	679.5999756
1404.459895	680.5999756
1404.989	680.2000122
1405.51805	681.0
1406.047045	682.0
1406.575984	679.5999756
1407.104869	682.2000122
1407.633697	681.2000122
1408.162471	680.2000122
1408.691189	679.2000122
1409.219852	676.5999756
1409.74846	677.5999756
1410.277013	683.0
1410.80551	679.5999756
1411.333952	678.2000122
1411.862339	680.0
1412.39067	680.4000244
1412.918946	679.2000122
1413.447167	679.5999756
1413.975333	681.2000122
1414.503444	680.0
1415.031499	677.0
1415.559499	688.0
1416.087444	681.2000122
1416.615333	678.2000122
1417.143167	682.5999756
1417.670947	681.7999878
1418.19867	682.2000122
1418.726339	681.7999878
1419.253952	677.0
1419.781511	680.5999756
1420.309014	675.4000244
1420.836461	677.5999756
1421.363854	678.7999878
1421.891191	680.5999756
1422.418474	680.4000244
1422.945701	676.5999756
1423.472872	682.0
1423.999989	677.4000244
1424.52705	676.5999756
1425.054057	678.5999756
1425.581008	680.5999756
1426.107904	678.4000244
1426.634745	676.5999756
1427.16153	676.2000122
1427.688261	679.4000244
1428.214936	672.2000122
1428.741556	676.4000244
1429.268121	681.0
1429.794631	678.2000122
1430.321085	682.2000122
1430.847485	679.4000244
1431.373829	682.2000122
1431.900118	683.0
1432.426353	679.4000244
1432.952532	678.4000244
1433.478655	680.4000244
1434.004724	677.5999756
1434.530738	681.5999756
1435.056696	680.2000122
1435.5826	680.0
1436.108448	680.5999756
1436.634241	681.7999878
1437.159979	681.5999756
1437.685662	677.5999756
1438.21129	679.5999756
1438.736863	677.7999878
1439.262381	681.4000244
1439.787843	678.0
1440.313251	677.7999878
1440.838603	680.7999878
1441.3639	682.5999756
1441.889143	677.5999756
1442.41433	681.7999878
1442.939462	678.4000244
1443.464539	679.2000122
1443.989561	679.2000122
1444.514528	679.7999878
1445.03944	681.4000244
1445.564297	680.0
1446.089099	679.7999878
1446.613846	677.7999878
1447.138537	678.5999756
1447.663174	679.0
1448.187756	677.5999756
1448.712282	678.4000244
1449.236754	677.0
1449.761171	679.4000244
1450.285532	680.0
1450.809839	681.7999878
1451.33409	678.7999878
1451.858287	679.2000122
1452.382428	679.4000244
1452.906515	678.4000244
1453.430546	677.7999878
1453.954523	678.4000244
1454.478444	679.7999878
1455.002311	681.2000122
1455.526123	680.7999878
1456.049879	678.5999756
1456.573581	677.5999756
1457.097227	679.5999756
1457.620819	677.4000244
1458.144356	679.7999878
1458.667837	680.0
1459.191264	682.0
1459.714636	679.7999878
1460.237952	680.5999756
1460.761214	676.5999756
1461.284421	680.4000244
1461.807573	681.7999878
1462.33067	679.2000122
1462.853712	680.4000244
1463.376699	677.4000244
1463.899632	679.2000122
1464.422509	681.5999756
1464.945331	678.4000244
1465.468099	679.0
1465.990811	679.0
1466.513469	680.7999878
1467.036071	680.7999878
1467.558619	678.7999878
1468.081112	676.7999878
1468.60355	680.7999878
1469.125933	683.4000244
1469.648261	680.0
1470.170534	679.4000244
1470.692752	679.7999878
1471.214916	679.7999878
1471.737024	678.5999756
1472.259078	680.5999756
1472.781077	680.5999756
1473.303021	680.4000244
1473.82491	677.7999878
1474.346744	682.7999878
1474.868523	678.0
1475.390248	676.4000244
1475.911917	677.4000244
1476.433532	678.7999878
1476.955092	677.5999756
1477.476597	680.2000122
1477.998047	680.0
1478.519442	677.0
1479.040783	680.0
1479.562068	681.0
1480.083299	677.4000244
1480.604475	681.5999756
1481.125596	680.4000244
1481.646663	677.4000244
1482.167674	678.0
1482.688631	679.0
1483.209533	677.7999878
1483.73038	678.7999878
1484.251172	677.2000122
1484.771909	678.0
1485.292592	675.2000122
1485.81322	677.7999878
1486.333793	678.0
1486.854311	677.0
1487.374775	680.4000244
1487.895183	677.7999878
1488.415537	677.2000122
1488.935836	677.7999878
1489.456081	681.0
1489.97627	676.4000244
1490.496405	678.0
1491.016485	676.5999756
1491.536511	677.7999878
1492.056481	680.5999756
1492.576397	677.7999878
1493.096258	680.2000122
1493.616064	678.2000122
1494.135816	680.5999756
1494.655513	675.2000122
1495.175155	679.2000122
1495.694742	675.4000244
1496.214274	674.7999878
1496.733752	677.0
1497.253175	679.7999878
1497.772544	679.2000122
1498.291858	679.0
1498.811116	678.7999878
1499.330321	676.5999756
1499.84947	686.4000244
1500.368565	677.7999878
1500.887605	678.4000244
1501.406591	678.4000244
1501.925521	679.5999756
1502.444397	676.5999756
1502.963219	677.7999878
1503.481985	677.2000122
1504.000697	678.0
1504.519355	680.5999756
1505.037957	677.0
1505.556505	677.4000244
1506.074999	681.4000244
1506.593437	677.7999878
1507.111821	677.5999756
1507.63015	681.2000122
1508.148425	677.4000244
1508.666645	676.4000244
1509.18481	679.2000122
1509.702921	677.4000244
1510.220977	679.2000122
1510.738979	682.4000244
1511.256925	678.0
1511.774817	677.4000244
1512.292655	678.2000122
1512.810438	676.7999878
1513.328166	677.7999878
1513.84584	677.5999756
1514.363459	677.0
1514.881023	679.4000244
1515.398533	679.7999878
1515.915988	677.7999878
1516.433389	682.0
1516.950734	678.7999878
1517.468026	675.0
1517.985263	673.4000244
1518.502445	678.5999756
1519.019572	674.2000122
1519.536645	680.2000122
1520.053664	676.7999878
1520.570628	676.0
1521.087537	678.4000244
1521.604392	678.5999756
1522.121192	678.2000122
1522.637937	680.5999756
1523.154628	679.0
1523.671265	677.4000244
1524.187847	681.2000122
1524.704374	678.0
1525.220847	681.7999878
1525.737265	676.7999878
1526.253629	684.4000244
1526.769938	679.2000122
1527.286192	676.2000122
1527.802392	676.7999878
1528.318538	673.2000122
1528.834629	679.5999756
1529.350666	680.0
1529.866648	676.4000244
1530.382575	678.5999756
1530.898448	677.2000122
1531.414266	680.0
1531.93003	678.2000122
1532.44574	678.4000244
1532.961395	674.7999878
1533.476995	678.5999756
1533.992541	680.5999756
1534.508033	676.2000122
1535.02347	679.2000122
1535.538852	679.2000122
1536.05418	677.4000244
1536.569454	672.4000244
1537.084673	678.0
1537.599837	682.4000244
1538.114947	681.0
1538.630003	677.4000244
1539.145004	678.0
1539.659951	679.2000122
1540.174843	677.5999756
1540.689681	678.7999878
1541.204465	679.0
1541.719194	676.2000122
1542.233868	676.5999756
1542.748488	677.4000244
1543.263054	678.0
1543.777565	679.0
1544.292022	678.4000244
1544.806424	676.0
1545.320772	679.7999878
1545.835066	677.7999878
1546.349305	678.5999756
1546.863489	678.2000122
1547.37762	678.0
1547.891696	675.5999756
1548.405717	675.0
1548.919684	675.4000244
1549.433597	679.0
1549.947455	679.5999756
1550.461259	678.7999878
1550.975009	678.4000244
1551.488704	680.2000122
1552.002345	678.0
1552.515931	676.5999756
1553.029463	679.0
1553.542941	677.0
1554.056364	678.0
1554.569733	677.0
1555.083048	678.0
1555.596308	678.7999878
1556.109514	678.4000244
1556.622665	679.0
1557.135762	676.2000122
1557.648805	678.7999878
1558.161794	680.7999878
1558.674728	676.7999878
1559.187608	674.0
1559.700433	679.2000122
1560.213205	677.2000122
1560.725921	671.7999878
1561.238584	678.2000122
1561.751192	681.7999878
1562.263746	674.7999878
1562.776246	677.4000244
1563.288691	677.4000244
1563.801082	680.0
1564.313419	676.4000244
1564.825701	679.4000244
1565.337929	676.4000244
1565.850103	676.5999756
1566.362223	680.2000122
1566.874288	678.5999756
1567.386299	678.4000244
1567.898256	677.2000122
1568.410158	679.0
1568.922007	675.7999878
1569.4338	677.2000122
1569.94554	678.5999756
1570.457226	678.5999756
1570.968857	679.2000122
1571.480434	676.7999878
1571.991956	677.4000244
1572.503425	677.2000122
1573.014839	679.2000122
1573.526199	675.0
1574.037505	676.4000244
1574.548756	679.2000122
1575.059953	679.5999756
1575.571096	677.4000244
1576.082185	679.4000244
1576.59322	675.7999878
1577.1042	676.5999756
1577.615126	677.5999756
1578.125998	680.5999756
1578.636816	678.5999756
1579.14758	679.0
1579.658289	677.2000122
1580.168944	680.0
1580.679545	678.4000244
1581.190092	674.2000122
1581.700585	678.4000244
1582.211023	676.0
1582.721407	676.4000244
1583.231737	679.4000244
1583.742013	677.4000244
1584.252235	677.7999878
1584.762403	677.0
1585.272516	678.0
1585.782575	678.0
1586.292581	677.2000122
1586.802532	680.4000244
1587.312428	677.0
1587.822271	675.4000244
1588.33206	678.4000244
1588.841794	675.2000122
1589.351474	678.2000122
1589.8611	678.2000122
1590.370672	676.5999756
1590.88019	676.5999756
1591.389654	677.4000244
1591.899064	678.2000122
1592.408419	677.5999756
