1042.452273	905.0
1043.018714	904.0
1043.585098	905.0
1044.151424	897.0
1044.717692	895.0
1045.283903	905.0
1045.850056	888.0
1046.416151	889.0
1046.982188	894.0
1047.548167	900.0
1048.114089	884.0
1049.24576	881.0
1049.811509	887.0
1050.3772	894.0
1050.942833	892.0
1051.508408	894.0
1052.073926	889.0
1052.639387	865.0
1053.204789	876.0
1053.770134	875.0
1054.335421	881.0
1054.900651	871.0
1056.030937	868.0
1056.595993	870.0
1057.160992	884.0
1057.725934	884.0
1058.290817	887.0
1059.420411	876.0
1059.985122	888.0
1060.549775	889.0
1061.114371	884.0
1061.678908	878.0
1062.243389	879.0
1062.807811	897.0
1063.372176	878.0
1063.936483	891.0
1064.500733	885.0
1065.064925	866.0
1065.62906	882.0
1066.193137	866.0
1066.757156	868.0
1067.321118	886.0
1067.885022	870.0
1068.448869	884.0
1069.012658	870.0
1069.57639	879.0
1070.140063	876.0
1070.70368	855.0
1071.267239	865.0
1071.83074	879.0
1072.394184	868.0
1072.95757	870.0
1073.520899	863.0
1074.647383	869.0
1075.21054	873.0
1075.773638	886.0
1076.336679	870.0
1076.899663	881.0
1077.462589	875.0
1078.025457	865.0
1078.588268	881.0
1079.151022	869.0
1079.713718	878.0
1080.838937	876.0
1081.401461	863.0
1081.963927	863.0
1082.526336	868.0
1083.088687	862.0
1083.650981	860.0
1084.213217	870.0
1084.775396	887.0
1085.337517	869.0
1085.899581	866.0
1086.461587	873.0
1087.023536	874.0
1087.585428	868.0
1088.147262	855.0
1088.709039	862.0
1089.270758	869.0
1089.83242	855.0
1090.394024	873.0
1090.955571	861.0
1091.517061	854.0
1092.078493	857.0
1092.639868	870.0
1093.762445	870.0
1094.323648	866.0
1094.884793	864.0
1095.445881	855.0
1096.006911	852.0
1096.567884	846.0
1097.1288	858.0
1097.689659	855.0
1098.25046	861.0
1098.811203	873.0
1099.37189	859.0
1099.932518	872.0
1100.49309	855.0
1101.053604	845.0
1101.614061	861.0
1102.174461	866.0
1102.734803	858.0
1103.295088	851.0
1103.855316	859.0
1104.415486	852.0
1104.975599	872.0
1105.535655	856.0
1106.095653	847.0
1106.655594	841.0
1107.215478	868.0
1107.775305	856.0
1108.894786	848.0
1109.45444	855.0
1110.014038	860.0
1110.573578	875.0
1111.133061	858.0
1111.692486	855.0
1112.251854	842.0
1112.811165	864.0
1113.370419	870.0
1113.929616	871.0
1114.488755	849.0
1115.047837	842.0
1115.606862	848.0
1116.16583	836.0
1116.72474	855.0
1117.283593	854.0
1117.842389	842.0
1118.401128	851.0
1118.959809	862.0
1119.518433	856.0
1120.077	842.0
1120.63551	838.0
1121.193963	854.0
1121.752358	853.0
1122.310697	855.0
1122.868978	852.0
1123.427202	860.0
1123.985368	855.0
1124.543478	843.0
1125.10153	853.0
1125.659526	862.0
1126.217464	853.0
1126.775345	862.0
1127.333168	859.0
1127.890935	867.0
1128.448644	843.0
1129.006297	843.0
1129.563892	846.0
1130.12143	838.0
1130.678911	854.0
1131.236335	857.0
1131.793701	868.0
1132.351011	848.0
1132.908263	861.0
1133.465458	850.0
1134.022597	838.0
1134.579678	858.0
1135.136702	846.0
1135.693669	860.0
1136.250578	859.0
1136.807431	847.0
1137.364227	858.0
1137.920965	841.0
1138.477647	849.0
1139.034271	856.0
1139.590839	857.0
1140.147349	850.0
1140.703802	851.0
1141.260198	853.0
1141.816537	851.0
1142.37282	850.0
1142.929045	862.0
1143.485213	858.0
1144.041323	855.0
1144.597377	861.0
1146.265197	856.0
1146.821023	848.0
1147.376792	859.0
1147.932503	858.0
1148.488158	844.0
1149.043756	851.0
1149.599297	846.0
1150.154781	843.0
1150.710207	843.0
1151.265577	849.0
1151.82089	860.0
1152.376146	844.0
1152.931345	844.0
1153.486487	855.0
1154.041572	868.0
1154.5966	850.0
1155.151571	858.0
1155.706485	839.0
1156.261342	848.0
1156.816142	841.0
1157.370885	851.0
1157.925572	841.0
1158.480201	840.0
1159.034774	867.0
1159.589289	847.0
1160.143748	857.0
1160.698149	850.0
1161.252494	843.0
1161.806782	863.0
1162.361013	854.0
1162.915187	837.0
1163.469304	835.0
1164.023364	849.0
1164.577368	861.0
1165.131314	842.0
1165.685204	842.0
1166.239036	836.0
1166.792812	851.0
1167.346531	840.0
1168.453798	838.0
1169.007347	838.0
1169.560838	839.0
1170.114273	838.0
1170.66765	849.0
1171.220971	852.0
1172.327443	846.0
1172.880593	863.0
1173.433687	848.0
1173.986723	850.0
1174.539703	845.0
1175.092626	847.0
1175.645493	849.0
1176.198302	827.0
1176.751055	840.0
1177.303751	852.0
1177.85639	840.0
1179.513966	851.0
1180.066378	838.0
1180.618733	847.0
1181.171032	862.0
1181.723273	842.0
1182.275458	852.0
1182.827586	845.0
1183.379657	837.0
1183.931672	843.0
1184.48363	827.0
1185.035531	845.0
1185.587375	855.0
1186.139162	837.0
1186.690893	833.0
1187.242567	842.0
1187.794184	829.0
1188.345745	839.0
1188.897249	834.0
1189.448696	830.0
1190.000086	839.0
1190.55142	832.0
1191.102697	850.0
1191.653918	852.0
1192.205081	833.0
1192.756188	833.0
1193.858232	844.0
1194.409169	836.0
1194.960049	836.0
1195.510872	866.0
1196.061639	863.0
1196.612349	840.0
1197.163003	849.0
1198.264139	850.0
1198.814623	841.0
1199.36505	844.0
1199.91542	848.0
1200.465734	847.0
1201.01599	843.0
1201.566191	844.0
1202.116334	831.0
1202.666421	841.0
1203.216452	831.0
1203.766425	827.0
1204.316343	846.0
1204.866203	846.0
1205.416007	847.0
1205.965754	843.0
1206.515445	846.0
1207.065079	827.0
1207.614657	831.0
1208.164177	835.0
1208.713642	849.0
1209.26305	832.0
1209.812401	844.0
1210.361695	838.0
1210.910933	833.0
1211.460115	839.0
1212.00924	832.0
1212.558308	840.0
1213.10732	829.0
1213.656275	844.0
1214.205174	839.0
1214.754016	845.0
1215.302801	828.0
1215.85153	828.0
1216.400203	834.0
1216.948819	840.0
1217.497378	845.0
1218.045881	834.0
1219.142717	843.0
1219.691051	848.0
1220.239327	827.0
1220.787548	833.0
1221.335712	832.0
1221.883819	834.0
1222.43187	839.0
1223.527802	821.0
1224.075683	826.0
1225.171277	833.0
1225.718989	827.0
1226.266644	842.0
1226.814243	835.0
1227.909272	846.0
1228.456702	833.0
1229.004075	826.0
1229.551392	836.0
1230.098652	832.0
1230.645856	834.0
1231.193003	836.0
1231.740094	826.0
1232.287129	837.0
1232.834107	831.0
1233.381029	819.0
1233.927894	834.0
1234.474703	840.0
1235.021455	833.0
1235.568151	834.0
1236.114791	834.0
1236.661374	819.0
1237.207901	815.0
1237.754372	843.0
1238.300786	831.0
1238.847144	821.0
1239.93969	814.0
1240.485879	824.0
1241.578087	836.0
1242.124106	833.0
1242.67007	843.0
1243.215976	840.0
1243.761827	837.0
1244.307621	827.0
1244.853359	823.0
1245.39904	825.0
1245.944665	827.0
1246.490234	841.0
1247.581203	833.0
1248.126602	833.0
1248.671946	828.0
1249.217233	836.0
1249.762464	829.0
1250.307638	821.0
1250.852757	829.0
1251.397819	823.0
1251.942824	830.0
1252.487774	831.0
1253.032667	824.0
1253.577503	826.0
1254.667008	824.0
1255.211676	831.0
1255.756288	828.0
1256.300843	819.0
1257.389785	827.0
1258.478502	825.0
1259.022776	822.0
1259.566994	825.0
1260.111156	842.0
1260.655261	836.0
1261.199311	835.0
1261.743304	820.0
1262.28724	811.0
1262.831121	833.0
1263.374945	835.0
1263.918713	819.0
1264.462425	830.0
1265.006081	827.0
1265.54968	847.0
1266.093223	828.0
1266.636711	824.0
1267.180141	823.0
1267.723516	825.0
1268.266835	841.0
1268.810097	842.0
1269.353303	826.0
1269.896453	823.0
1270.439547	829.0
1270.982584	820.0
1271.525566	824.0
1272.068491	827.0
1273.154173	826.0
1273.69693	830.0
1274.239631	829.0
1274.782275	828.0
1275.324864	828.0
1275.867396	827.0
1276.409872	813.0
1276.952292	825.0
1277.494656	835.0
1278.036964	819.0
1278.579215	831.0
1280.747661	824.0
1281.289632	828.0
1281.831547	831.0
1282.915209	828.0
1283.456955	830.0
1283.998646	815.0
1284.540281	830.0
1285.081859	840.0
1285.623381	871.0
1286.164848	850.0
1286.706258	821.0
1287.247612	814.0
1287.788911	835.0
1288.330153	822.0
1288.871339	819.0
1289.412469	827.0
1289.953543	825.0
1290.494561	816.0
1291.035523	822.0
1291.576428	828.0
1292.117278	810.0
1292.658072	819.0
1293.19881	841.0
1293.739492	827.0
1294.280118	818.0
1294.820687	820.0
1295.361201	816.0
1295.901659	830.0
1296.982406	824.0
1297.522696	832.0
1298.06293	826.0
1298.603108	827.0
1300.223305	827.0
1300.763259	825.0
1301.303157	817.0
1301.842999	799.0
1302.382785	816.0
1303.462189	824.0
1304.001807	824.0
1304.541369	832.0
1305.080875	821.0
1305.620326	823.0
1306.15972	827.0
1306.699058	819.0
1307.238341	812.0
1307.777567	818.0
1308.316738	822.0
1308.855853	825.0
1309.394912	823.0
1309.933915	819.0
1310.472862	820.0
1311.011753	814.0
1311.550588	814.0
1312.089367	825.0
1312.62809	824.0
1313.166758	818.0
1313.70537	807.0
1314.243925	803.0
1314.782425	823.0
1315.320869	828.0
1315.859257	818.0
1316.397589	824.0
1316.935866	825.0
1317.474086	814.0
1318.012251	816.0
1318.55036	826.0
1319.088413	812.0
1319.62641	827.0
1320.164351	815.0
1320.702236	824.0
1321.240066	831.0
1321.777839	821.0
1322.315557	809.0
1322.853219	826.0
1323.390826	811.0
1323.928376	826.0
1324.465871	817.0
1327.152506	796.0
1327.689666	805.0
1328.763818	815.0
1329.300811	828.0
1329.837747	818.0
1330.374628	804.0
1330.911453	811.0
1331.448222	822.0
1331.984936	807.0
1332.521594	811.0
1333.058196	807.0
1333.594742	819.0
1334.131232	815.0
1334.667667	807.0
1335.204046	812.0
1335.740369	807.0
1336.812848	809.0
1337.349004	823.0
1337.885105	804.0
1338.421149	811.0
1338.957138	813.0
1339.493071	818.0
1340.028949	822.0
1340.56477	805.0
1341.100536	814.0
1341.636246	812.0
1342.171901	809.0
1342.7075	801.0
1343.243043	813.0
1343.77853	818.0
1344.313962	805.0
1344.849338	820.0
1345.384659	820.0
1345.919923	819.0
1346.455133	815.0
1346.990286	794.0
1347.525384	809.0
1348.595412	805.0
1349.130343	805.0
1349.665218	813.0
1350.200037	817.0
1350.734801	806.0
1351.269509	811.0
1351.804162	812.0
1352.338758	806.0
1352.8733	817.0
1353.407785	811.0
1353.942215	805.0
1354.476589	801.0
1355.010908	817.0
1355.545171	803.0
1356.079379	811.0
1356.61353	809.0
1357.147627	805.0
1357.681667	806.0
1358.215652	798.0
1358.749582	804.0
1359.283456	813.0
1359.817274	806.0
1360.351037	805.0
1360.884744	803.0
1361.418395	822.0
1361.951991	806.0
1362.485531	820.0
1363.019016	808.0
1363.552445	816.0
1364.085819	820.0
1364.619137	815.0
1365.1524	813.0
1365.685607	802.0
1366.218758	804.0
1366.751854	807.0
1367.284894	801.0
1367.817879	807.0
1368.350808	807.0
1368.883682	808.0
1369.4165	810.0
1369.949263	824.0
1370.48197	809.0
1371.014622	810.0
1371.547218	807.0
1372.079758	795.0
1372.612244	807.0
1373.144673	809.0
1373.677047	809.0
1374.209366	801.0
1374.741629	792.0
1375.273836	803.0
1375.805989	790.0
1376.338085	806.0
1376.870126	808.0
1377.402112	815.0
1377.934042	819.0
1378.465917	807.0
1378.997736	806.0
1379.5295	802.0
1380.061208	798.0
1380.592861	804.0
1381.124459	811.0
1382.718918	814.0
1383.250294	807.0
1383.781614	807.0
1384.312879	799.0
1384.844088	806.0
1385.375242	798.0
1385.90634	809.0
1386.437383	812.0
1386.968371	797.0
1387.499303	818.0
1388.03018	827.0
1388.561001	853.0
1389.091767	892.0
1389.622478	836.0
1390.153133	806.0
1390.683733	807.0
1391.214277	807.0
1391.744766	815.0
1392.2752	799.0
1392.805578	806.0
1393.335901	802.0
1393.866168	810.0
1394.396381	799.0
1394.926537	807.0
1395.456639	798.0
1395.986685	798.0
1397.046611	807.0
1397.576491	809.0
1398.106315	799.0
1399.165798	793.0
1399.695457	803.0
1400.22506	795.0
1400.754608	804.0
1401.284101	801.0
1401.813538	807.0
1402.34292	797.0
1402.872247	800.0
1403.401518	796.0
1403.930734	804.0
1404.459895	803.0
1404.989	791.0
1405.51805	796.0
1406.047045	804.0
1406.575984	811.0
1407.104869	794.0
1407.633697	804.0
1408.162471	813.0
1408.691189	805.0
1409.219852	813.0
1409.74846	816.0
1410.277013	807.0
1410.80551	811.0
1411.333952	801.0
1411.862339	812.0
1412.918946	811.0
1413.447167	812.0
1413.975333	801.0
1416.087444	807.0
1416.615333	788.0
1417.143167	798.0
1417.670947	797.0
1418.19867	787.0
1418.726339	796.0
1419.253952	797.0
1419.781511	794.0
1420.309014	803.0
1420.836461	788.0
1421.363854	790.0
1421.891191	805.0
1422.418474	806.0
1423.472872	815.0
1423.999989	809.0
1424.52705	800.0
1425.054057	799.0
1425.581008	792.0
1426.107904	807.0
1426.634745	797.0
1427.16153	801.0
1427.688261	805.0
1428.214936	785.0
1428.741556	799.0
1430.321085	797.0
1430.847485	810.0
1431.373829	795.0
1431.900118	803.0
1432.426353	808.0
1432.952532	802.0
1433.478655	796.0
1434.004724	794.0
1434.530738	795.0
1435.056696	795.0
1435.5826	803.0
1436.108448	815.0
1436.634241	800.0
1437.159979	799.0
1437.685662	796.0
1438.21129	801.0
1438.736863	796.0
1439.262381	806.0
1439.787843	800.0
1440.313251	794.0
1440.838603	799.0
1441.3639	802.0
1441.889143	795.0
1442.41433	797.0
1442.939462	814.0
1443.464539	806.0
1443.989561	817.0
1444.514528	806.0
1445.03944	802.0
1445.564297	817.0
1446.089099	801.0
1446.613846	800.0
1447.138537	783.0
1447.663174	800.0
1448.187756	788.0
1448.712282	789.0
1449.236754	791.0
1449.761171	805.0
1450.285532	799.0
1450.809839	810.0
1451.33409	799.0
1451.858287	795.0
1452.382428	810.0
1452.906515	806.0
1453.430546	804.0
1453.954523	804.0
1454.478444	793.0
1455.002311	791.0
1455.526123	810.0
1456.049879	803.0
1456.573581	801.0
1457.097227	802.0
1457.620819	803.0
1458.144356	795.0
1458.667837	797.0
1459.191264	788.0
1459.714636	784.0
1460.237952	794.0
1460.761214	808.0
1461.807573	808.0
1462.33067	803.0
1462.853712	791.0
1464.422509	810.0
1464.945331	797.0
1465.468099	794.0
1465.990811	802.0
1466.513469	808.0
1467.036071	793.0
1467.558619	782.0
1468.081112	781.0
1468.60355	798.0
1469.125933	797.0
1469.648261	799.0
1470.170534	802.0
1470.692752	786.0
1471.214916	785.0
1471.737024	800.0
1472.259078	799.0
1472.781077	795.0
1473.303021	797.0
1473.82491	796.0
1474.346744	794.0
1474.868523	794.0
1475.390248	794.0
1475.911917	809.0
1476.433532	802.0
1476.955092	800.0
1477.476597	790.0
1477.998047	799.0
1478.519442	788.0
1479.040783	788.0
1479.562068	784.0
1480.604475	780.0
1481.125596	790.0
1481.646663	800.0
1482.167674	791.0
1482.688631	792.0
1484.771909	793.0
1485.292592	785.0
1485.81322	802.0
1486.333793	793.0
1486.854311	794.0
1487.374775	808.0
1487.895183	792.0
1488.415537	789.0
1488.935836	781.0
1491.016485	791.0
1491.536511	793.0
1492.056481	786.0
1492.576397	791.0
1493.096258	793.0
1493.616064	790.0
1494.135816	785.0
1494.655513	799.0
1495.175155	788.0
1495.694742	787.0
1496.214274	791.0
1496.733752	798.0
1497.253175	789.0
1497.772544	784.0
1498.291858	792.0
1498.811116	791.0
1499.330321	795.0
1499.84947	796.0
1500.368565	798.0
1500.887605	802.0
1501.406591	793.0
1501.925521	779.0
1502.444397	794.0
1502.963219	791.0
1503.481985	807.0
1504.000697	801.0
1504.519355	784.0
1505.037957	799.0
1505.556505	799.0
1506.074999	800.0
1506.593437	797.0
1507.111821	795.0
1507.63015	783.0
1508.148425	790.0
1508.666645	785.0
1509.18481	792.0
1509.702921	790.0
1510.220977	789.0
1510.738979	807.0
1511.256925	796.0
1511.774817	791.0
1512.292655	779.0
1512.810438	792.0
1513.328166	783.0
1513.84584	792.0
1514.363459	787.0
1514.881023	785.0
1515.915988	788.0
1516.433389	780.0
1516.950734	788.0
1517.468026	783.0
1517.985263	795.0
1518.502445	793.0
1519.019572	791.0
1519.536645	788.0
1520.053664	785.0
1520.570628	800.0
1521.087537	788.0
1521.604392	786.0
1522.121192	780.0
1522.637937	790.0
1523.154628	777.0
1523.671265	782.0
1524.187847	793.0
1524.704374	782.0
1525.220847	787.0
1525.737265	787.0
1526.253629	769.0
1526.769938	778.0
1527.286192	791.0
1527.802392	790.0
1528.318538	794.0
1528.834629	783.0
1529.350666	788.0
1529.866648	786.0
1530.382575	798.0
1530.898448	789.0
1531.414266	782.0
1531.93003	794.0
1532.44574	779.0
1532.961395	794.0
1533.476995	784.0
1533.992541	777.0
1534.508033	785.0
1536.05418	790.0
1536.569454	782.0
1537.084673	778.0
1537.599837	777.0
1538.114947	780.0
1538.630003	773.0
1539.145004	781.0
1539.659951	781.0
1540.174843	771.0
1540.689681	786.0
1541.204465	788.0
1541.719194	780.0
1542.233868	791.0
1542.748488	778.0
1544.806424	782.0
1545.320772	786.0
1545.835066	787.0
1546.349305	787.0
1546.863489	802.0
1547.37762	782.0
1547.891696	774.0
1548.405717	779.0
1548.919684	781.0
1549.433597	789.0
1549.947455	790.0
1551.488704	780.0
1552.002345	783.0
1553.029463	779.0
1553.542941	793.0
1554.056364	802.0
1554.569733	786.0
1555.083048	790.0
1555.596308	797.0
1556.109514	783.0
1556.622665	791.0
1557.135762	784.0
1557.648805	801.0
1558.161794	783.0
1558.674728	791.0
1559.187608	792.0
1559.700433	778.0
1560.213205	784.0
1560.725921	785.0
1561.238584	797.0
1561.751192	794.0
1562.263746	784.0
1562.776246	774.0
1563.288691	768.0
1563.801082	778.0
1564.313419	784.0
1564.825701	783.0
1565.337929	792.0
1565.850103	785.0
1566.362223	781.0
1566.874288	783.0
1567.386299	777.0
1567.898256	790.0
1568.410158	785.0
1568.922007	774.0
1569.4338	779.0
1569.94554	785.0
1570.457226	796.0
1570.968857	781.0
1571.480434	789.0
1571.991956	783.0
1572.503425	793.0
1573.526199	794.0
1574.037505	788.0
1574.548756	771.0
1575.059953	768.0
1575.571096	785.0
1576.082185	787.0
1576.59322	782.0
1577.1042	780.0
1577.615126	784.0
1578.125998	790.0
1578.636816	786.0
1579.14758	780.0
1579.658289	782.0
1580.168944	784.0
1580.679545	776.0
1581.190092	788.0
1581.700585	781.0
1582.721407	777.0
1583.231737	786.0
1583.742013	778.0
1584.252235	783.0
1584.762403	777.0
1585.782575	787.0
1586.292581	782.0
1586.802532	773.0
1587.312428	772.0
1587.822271	780.0
1588.33206	777.0
1588.841794	780.0
1589.8611	778.0
1590.370672	774.0
1590.88019	790.0
1591.389654	789.0
1591.899064	784.0
1592.408419	786.0
