1042.452273	763.5
1043.018714	766.0
1043.585098	753.5
1044.151424	771.0
1044.717692	770.0
1045.283903	754.0
1045.850056	760.5
1046.416151	761.0
1046.982188	763.0
1047.548167	753.5
1048.114089	752.0
1048.679953	752.0
1049.24576	746.0
1049.811509	747.0
1050.3772	758.0
1050.942833	750.0
1051.508408	747.0
1052.073926	749.5
1052.639387	743.5
1053.204789	744.5
1053.770134	743.5
1054.335421	752.5
1054.900651	748.5
1055.465823	745.5
1056.030937	753.5
1056.595993	741.5
1057.160992	741.0
1057.725934	747.0
1058.290817	741.0
1058.855643	744.5
1059.420411	741.5
1059.985122	746.5
1060.549775	738.5
1061.114371	740.5
1061.678908	734.0
1062.243389	749.0
1062.807811	735.5
1063.372176	743.0
1063.936483	754.5
1064.500733	742.5
1065.064925	733.0
1065.62906	741.0
1066.193137	739.0
1066.757156	741.0
1067.321118	736.5
1067.885022	734.0
1068.448869	742.0
1069.012658	743.0
1069.57639	736.5
1070.70368	731.5
1071.267239	738.0
1071.83074	735.5
1072.394184	743.5
1072.95757	745.5
1073.520899	734.0
1074.08417	734.0
1074.647383	737.0
1075.21054	735.5
1075.773638	737.5
1076.336679	736.5
1076.899663	741.0
1077.462589	735.5
1078.025457	736.0
1078.588268	730.0
1079.151022	730.0
1079.713718	739.0
1080.276356	732.5
1080.838937	736.5
1081.401461	731.0
1081.963927	724.5
1082.526336	739.5
1083.088687	728.0
1083.650981	734.0
1084.213217	733.5
1084.775396	735.0
1085.337517	740.0
1085.899581	735.5
1086.461587	735.0
1087.023536	735.0
1087.585428	741.0
1088.147262	744.5
1088.709039	738.5
1089.270758	737.5
1089.83242	738.5
1090.394024	733.5
1090.955571	738.0
1091.517061	728.0
1092.078493	730.5
1092.639868	738.5
1093.201185	733.0
1093.762445	732.5
1094.323648	732.0
1094.884793	739.5
1095.445881	727.5
1096.006911	729.0
1096.567884	733.0
1097.1288	740.0
1097.689659	731.5
1098.25046	731.5
1098.811203	739.0
1099.37189	733.0
1099.932518	731.5
1100.49309	726.0
1101.053604	742.5
1101.614061	730.0
1102.174461	728.5
1102.734803	728.5
1103.295088	733.0
1103.855316	735.0
1104.415486	734.0
1104.975599	731.5
1105.535655	736.0
1106.095653	730.5
1106.655594	735.0
1107.215478	734.0
1107.775305	735.0
1108.335074	732.5
1108.894786	734.0
1109.45444	738.5
1110.014038	733.5
1110.573578	736.0
1111.133061	733.5
1111.692486	739.0
1112.251854	739.0
1112.811165	743.5
1113.370419	730.5
1113.929616	734.5
1114.488755	733.5
1115.047837	735.0
1115.606862	730.0
1116.16583	733.5
1116.72474	734.5
1117.283593	729.5
1117.842389	729.5
1118.401128	726.5
1118.959809	736.5
1119.518433	729.5
1120.077	726.0
1120.63551	740.0
1121.193963	731.5
1121.752358	727.5
1122.310697	726.0
1122.868978	732.5
1123.427202	740.5
1123.985368	734.5
1124.543478	728.5
1125.10153	725.0
1125.659526	734.5
1126.217464	730.5
1126.775345	740.0
1127.333168	728.0
1127.890935	735.0
1128.448644	729.0
1129.006297	729.0
1129.563892	727.5
1130.12143	734.5
1130.678911	723.5
1131.236335	734.5
1131.793701	725.5
1132.351011	732.5
1132.908263	729.5
1133.465458	727.5
1134.022597	733.5
1134.579678	724.0
1135.136702	729.0
1135.693669	729.5
1136.250578	729.0
1136.807431	729.5
1137.364227	737.0
1137.920965	722.0
1138.477647	724.5
1139.034271	736.0
1139.590839	732.5
1140.147349	734.0
1140.703802	737.5
1141.260198	732.5
1141.816537	733.5
1142.37282	729.5
1142.929045	736.0
1143.485213	732.0
1144.041323	733.0
1144.597377	733.5
1145.153374	731.0
1145.709314	728.5
1146.265197	731.0
1146.821023	728.5
1147.376792	732.0
1147.932503	741.0
1148.488158	735.0
1149.043756	735.5
1149.599297	723.0
1150.154781	732.0
1150.710207	739.0
1151.265577	736.0
1151.82089	738.0
1152.376146	727.5
1152.931345	730.5
1153.486487	734.5
1154.041572	731.0
1154.5966	737.0
1155.151571	728.0
1155.706485	731.5
1156.261342	730.0
1156.816142	734.0
1157.370885	731.0
1157.925572	733.5
1158.480201	730.0
1159.034774	732.0
1159.589289	730.0
1160.143748	735.0
1160.698149	729.5
1161.252494	730.5
1161.806782	726.5
1162.361013	730.5
1162.915187	736.5
1163.469304	734.0
1164.023364	731.5
1164.577368	735.0
1165.131314	735.0
1165.685204	727.5
1166.239036	735.0
1166.792812	735.5
1167.346531	738.5
1167.900193	734.0
1168.453798	725.0
1169.007347	730.5
1169.560838	737.0
1170.114273	733.0
1170.66765	730.0
1171.220971	728.5
1171.774235	736.0
1172.327443	736.5
1172.880593	724.0
1173.433687	729.0
1173.986723	735.0
1174.539703	732.5
1175.092626	731.5
1175.645493	732.5
1176.198302	734.5
1176.751055	729.5
1177.303751	734.5
1177.85639	726.0
1178.408972	728.5
1178.961498	729.0
1179.513966	734.5
1180.066378	733.5
1180.618733	740.0
1181.171032	726.0
1181.723273	723.5
1182.275458	731.5
1182.827586	726.0
1183.379657	721.0
1183.931672	731.0
1184.48363	734.5
1185.035531	729.0
1185.587375	733.5
1186.139162	721.5
1186.690893	728.0
1187.242567	725.0
1187.794184	730.5
1188.345745	717.5
1188.897249	732.5
1189.448696	727.5
1190.000086	730.0
1190.55142	722.5
1191.102697	725.5
1191.653918	722.5
1192.205081	727.0
1192.756188	728.0
1193.858232	728.0
1194.409169	732.0
1194.960049	733.0
1195.510872	721.0
1196.061639	729.0
1196.612349	722.5
1197.163003	724.5
1197.713599	728.5
1198.264139	726.5
1198.814623	733.0
1199.36505	722.0
1199.91542	723.5
1200.465734	725.5
1201.01599	722.5
1201.566191	732.0
1202.116334	729.5
1202.666421	731.5
1203.216452	734.5
1203.766425	723.0
1204.316343	731.5
1204.866203	726.5
1205.416007	720.5
1205.965754	729.5
1206.515445	726.5
1207.065079	718.5
1207.614657	724.0
1208.164177	734.5
1208.713642	735.5
1209.26305	725.0
1209.812401	731.5
1210.361695	731.0
1210.910933	736.0
1211.460115	722.5
1212.00924	726.5
1212.558308	735.5
1213.10732	722.5
1213.656275	731.0
1214.205174	728.5
1214.754016	740.0
1215.302801	727.5
1215.85153	734.0
1216.400203	725.5
1216.948819	725.5
1217.497378	724.5
1218.045881	725.5
1218.594327	725.5
1219.142717	725.0
1219.691051	722.5
1220.239327	734.0
1220.787548	730.0
1221.335712	734.5
1221.883819	731.0
1222.43187	724.0
1222.979864	725.5
1223.527802	728.0
1224.075683	722.5
1224.623508	733.5
1225.171277	729.5
1225.718989	732.5
1226.266644	737.0
1226.814243	729.5
1227.361786	726.0
1227.909272	730.5
1228.456702	729.0
1229.004075	730.0
1229.551392	726.0
1230.098652	721.0
1230.645856	719.0
1231.193003	721.0
1231.740094	737.5
1232.287129	727.0
1232.834107	729.5
1233.381029	730.5
1233.927894	729.0
1234.474703	733.0
1235.021455	725.5
1235.568151	732.0
1236.114791	732.5
1236.661374	723.0
1237.207901	731.0
1237.754372	727.0
1238.300786	730.0
1238.847144	719.5
1239.393445	729.5
1239.93969	729.0
1240.485879	724.0
1241.032011	722.0
1241.578087	726.5
1242.124106	723.5
1242.67007	733.0
1243.215976	722.5
1243.761827	724.0
1244.307621	736.5
1244.853359	721.0
1245.39904	724.5
1245.944665	729.0
1246.490234	734.5
1247.035746	723.0
1247.581203	731.5
1248.126602	726.5
1248.671946	730.0
1249.217233	727.0
1249.762464	723.5
1250.307638	728.5
1250.852757	729.5
1251.397819	722.0
1251.942824	717.5
1252.487774	726.0
1253.032667	731.5
1253.577503	726.0
1254.122284	726.0
1254.667008	723.0
1255.211676	726.0
1255.756288	725.0
1256.300843	726.0
1256.845342	724.0
1257.389785	731.5
1257.934172	717.0
1258.478502	718.5
1259.022776	726.5
1259.566994	741.5
1260.111156	740.0
1260.655261	725.5
1261.199311	725.0
1261.743304	722.0
1262.28724	734.0
1262.831121	727.5
1263.374945	722.5
1263.918713	726.5
1264.462425	719.0
1265.006081	734.5
1265.54968	729.0
1266.093223	728.0
1266.636711	728.0
1267.180141	723.0
1267.723516	720.5
1268.266835	724.0
1268.810097	720.0
1269.353303	727.0
1269.896453	728.5
1270.439547	712.0
1270.982584	722.5
1271.525566	718.0
1272.068491	730.0
1272.61136	724.5
1273.154173	729.5
1273.69693	724.0
1274.239631	722.5
1274.782275	720.5
1275.324864	723.0
1275.867396	715.5
1276.409872	720.0
1276.952292	722.0
1277.494656	723.5
1278.036964	719.5
1278.579215	714.5
1279.121411	728.0
1279.66355	722.0
1280.205634	722.0
1280.747661	716.5
1281.289632	727.5
1281.831547	719.0
1282.373406	721.5
1282.915209	712.0
1283.456955	722.0
1283.998646	723.0
1284.540281	734.0
1285.081859	776.0
1285.623381	864.5
1286.164848	832.0
1286.706258	750.0
1287.247612	729.5
1287.788911	726.0
1288.330153	725.0
1288.871339	723.0
1289.412469	720.5
1289.953543	710.5
1290.494561	721.0
1291.035523	721.5
1291.576428	724.5
1292.117278	727.5
1292.658072	716.5
1293.19881	722.0
1293.739492	715.0
1294.280118	721.5
1294.820687	717.0
1295.361201	724.5
1295.901659	717.0
1296.442061	725.5
1296.982406	729.0
1297.522696	729.0
1298.06293	720.0
1298.603108	721.5
1299.143229	722.0
1299.683295	721.0
1300.223305	724.0
1300.763259	724.5
1301.303157	720.0
1301.842999	717.0
1302.382785	729.0
1302.922515	725.0
1303.462189	721.5
1304.001807	721.0
1304.541369	716.0
1305.080875	726.5
1305.620326	717.0
1306.15972	725.5
1306.699058	717.5
1307.238341	715.5
1307.777567	720.0
1308.316738	717.5
1308.855853	722.0
1309.394912	717.5
1309.933915	728.0
1310.472862	717.0
1311.011753	726.0
1311.550588	719.0
1312.089367	724.0
1312.62809	722.5
1313.166758	722.0
1313.70537	723.5
1314.243925	718.5
1314.782425	719.0
1315.320869	723.5
1315.859257	720.0
1316.397589	722.0
1316.935866	720.5
1317.474086	724.0
1318.012251	716.5
1318.55036	716.5
1319.088413	715.0
1319.62641	716.0
1320.164351	723.5
1320.702236	715.0
1321.240066	720.5
1321.777839	721.0
1322.315557	719.5
1322.853219	719.0
1323.390826	725.5
1323.928376	725.0
1324.465871	712.5
1325.003309	726.0
1325.540692	724.0
1326.07802	723.5
1326.615291	715.0
1327.152506	721.0
1327.689666	718.5
1328.22677	709.5
1328.763818	719.0
1329.300811	718.5
1329.837747	721.0
1330.374628	716.5
1330.911453	713.5
1331.448222	719.0
1331.984936	720.5
1332.521594	718.0
1333.058196	719.0
1333.594742	724.0
1334.131232	722.5
1334.667667	727.5
1335.204046	718.5
1335.740369	717.5
1336.276637	720.0
1336.812848	720.5
1337.349004	727.0
1337.885105	729.0
1338.421149	716.5
1338.957138	715.5
1339.493071	721.5
1340.028949	715.5
1340.56477	719.5
1341.100536	716.5
1341.636246	724.0
1342.171901	711.0
1342.7075	716.0
1343.243043	722.0
1343.77853	723.5
1344.313962	717.0
1344.849338	718.0
1345.384659	713.5
1345.919923	721.0
1346.455133	717.0
1346.990286	709.5
1347.525384	715.0
1348.060426	724.0
1348.595412	719.0
1349.130343	720.5
1349.665218	717.5
1350.200037	721.0
1350.734801	719.0
1351.269509	716.5
1351.804162	715.5
1352.338758	720.5
1352.8733	722.5
1353.407785	721.5
1354.476589	713.5
1355.010908	723.5
1355.545171	724.0
1356.079379	716.5
1356.61353	716.5
1357.147627	710.0
1357.681667	711.5
1358.215652	720.5
1358.749582	716.5
1359.283456	731.5
1359.817274	718.0
1360.351037	715.0
1360.884744	730.5
1361.418395	719.5
1361.951991	723.5
1362.485531	725.0
1363.019016	720.5
1363.552445	717.5
1364.085819	721.0
1364.619137	719.5
1365.1524	723.0
1365.685607	712.0
1366.218758	720.5
1366.751854	712.5
1367.284894	725.5
1367.817879	718.5
1368.350808	711.0
1368.883682	727.0
1369.4165	718.0
1369.949263	718.0
1370.48197	717.0
1371.014622	717.5
1371.547218	720.0
1372.079758	713.5
1372.612244	726.5
1373.144673	717.0
1373.677047	722.0
1374.209366	710.0
1374.741629	716.5
1375.273836	720.0
1375.805989	715.0
1376.338085	714.5
1376.870126	724.5
1377.402112	717.0
1377.934042	720.0
1378.465917	717.5
1378.997736	722.0
1379.5295	715.5
1380.061208	728.0
1380.592861	715.5
1381.124459	717.5
1381.656	719.0
1382.187487	718.5
1382.718918	717.5
1383.250294	720.5
1383.781614	714.0
1384.312879	715.0
1384.844088	714.5
1385.375242	722.5
1385.90634	718.5
1386.437383	729.0
1386.968371	724.0
1387.499303	728.0
1388.03018	747.5
1388.561001	858.0
1389.091767	978.0
1389.622478	793.5
1390.153133	735.5
1390.683733	723.0
1391.214277	720.5
1391.744766	727.5
1392.2752	718.5
1392.805578	724.5
1393.335901	717.5
1393.866168	723.0
1394.396381	720.0
1394.926537	723.5
1395.456639	717.0
1395.986685	715.0
1396.516675	726.0
1397.046611	714.5
1397.576491	717.0
1398.106315	714.5
1398.636084	720.5
1399.165798	716.5
1399.695457	715.5
1400.22506	717.5
1400.754608	723.0
1401.284101	716.0
1401.813538	720.5
1402.34292	717.0
1402.872247	719.5
1403.401518	720.5
1403.930734	713.0
1404.459895	714.0
1404.989	719.0
1405.51805	721.5
1406.047045	719.0
1406.575984	715.5
1407.104869	715.5
1407.633697	716.0
1408.162471	711.5
1408.691189	718.0
1409.219852	719.0
1409.74846	727.0
1410.277013	738.0
1410.80551	727.5
1411.333952	723.0
1411.862339	722.0
1412.39067	712.5
1412.918946	726.0
1413.447167	714.0
1413.975333	719.0
1414.503444	716.5
1415.031499	715.0
1416.087444	716.0
1416.615333	716.0
1417.143167	713.0
1417.670947	713.0
1418.19867	713.0
1418.726339	720.5
1419.253952	714.5
1419.781511	719.5
1420.309014	721.5
1420.836461	714.5
1421.363854	722.5
1421.891191	713.5
1422.418474	724.0
1422.945701	714.5
1423.472872	712.0
1423.999989	711.0
1424.52705	717.0
1425.054057	715.0
1425.581008	716.0
1426.107904	721.5
1426.634745	723.0
1427.16153	720.0
1427.688261	711.0
1428.214936	710.0
1428.741556	720.5
1429.268121	715.5
1429.794631	710.0
1430.321085	714.5
1430.847485	720.0
1431.373829	721.0
1431.900118	716.5
1432.426353	718.0
1432.952532	723.5
1433.478655	714.5
1434.004724	722.0
1434.530738	716.0
1435.056696	709.0
1435.5826	720.0
1436.108448	725.0
1436.634241	720.5
1437.159979	719.5
1437.685662	716.0
1438.21129	717.0
1438.736863	712.5
1439.262381	713.5
1439.787843	723.5
1440.313251	721.0
1440.838603	720.0
1441.3639	717.5
1441.889143	722.0
1442.41433	717.0
1442.939462	718.5
1443.464539	711.5
1443.989561	714.0
1444.514528	719.0
1445.03944	719.5
1445.564297	721.5
1446.089099	710.0
1446.613846	718.5
1447.138537	719.5
1447.663174	707.0
1448.187756	721.0
1448.712282	716.5
1449.236754	717.0
1449.761171	720.0
1451.33409	717.0
1451.858287	709.0
1452.382428	717.5
1452.906515	719.5
1453.430546	715.5
1453.954523	719.0
1454.478444	709.5
1455.002311	717.5
1455.526123	715.0
1456.049879	715.5
1456.573581	717.5
1457.097227	715.5
1457.620819	724.0
1458.144356	720.5
1458.667837	712.0
1459.191264	709.0
1459.714636	720.5
1460.237952	721.0
1460.761214	717.5
1461.284421	720.5
1461.807573	722.5
1462.33067	721.0
1462.853712	714.5
1463.376699	711.5
1463.899632	713.5
1464.422509	717.5
1464.945331	716.5
1465.468099	719.0
1465.990811	719.5
1466.513469	712.5
1467.036071	715.5
1467.558619	715.0
1468.081112	713.5
1469.125933	707.0
1469.648261	715.5
1470.170534	716.0
1470.692752	724.0
1471.214916	717.0
1471.737024	715.0
1472.259078	720.5
1472.781077	723.5
1473.303021	717.5
1473.82491	720.0
1474.346744	708.0
1474.868523	716.0
1475.390248	716.0
1475.911917	714.5
1476.433532	714.5
1476.955092	724.5
1477.476597	714.0
1477.998047	724.5
1478.519442	720.5
1479.040783	717.0
1479.562068	717.0
1480.083299	716.5
1480.604475	718.0
1481.125596	713.5
1481.646663	713.5
1482.167674	712.0
1482.688631	720.5
1483.209533	717.5
1483.73038	713.0
1484.251172	718.0
1484.771909	713.0
1485.292592	717.0
1485.81322	717.5
1486.333793	718.5
1486.854311	707.5
1487.374775	712.0
1487.895183	716.5
1488.415537	716.5
1488.935836	713.5
1489.456081	715.5
1489.97627	714.0
1490.496405	715.0
1491.016485	715.0
1491.536511	717.0
1492.056481	714.0
1492.576397	715.5
1493.096258	709.5
1493.616064	721.5
1494.135816	720.5
1494.655513	711.0
1495.175155	711.0
1495.694742	703.5
1496.214274	715.0
1496.733752	708.5
1497.253175	719.0
1497.772544	719.5
1498.291858	711.0
1498.811116	714.5
1499.330321	714.5
1499.84947	724.5
1500.368565	715.5
1500.887605	713.0
1501.406591	716.0
1501.925521	712.5
1502.444397	715.5
1502.963219	714.0
1503.481985	709.5
1504.000697	711.0
1504.519355	713.0
1505.037957	722.0
1505.556505	713.0
1506.074999	714.0
1506.593437	713.5
1507.111821	709.5
1507.63015	716.0
1508.148425	715.5
1508.666645	717.5
1509.18481	710.0
1509.702921	714.5
1510.220977	715.0
1510.738979	723.0
1511.256925	713.0
1511.774817	721.0
1512.292655	711.0
1512.810438	710.5
1513.328166	714.0
1513.84584	716.0
1514.363459	714.5
1514.881023	712.5
1515.398533	709.0
1515.915988	714.0
1516.433389	716.0
1516.950734	710.0
1517.468026	713.0
1517.985263	711.5
1518.502445	718.0
1519.019572	715.5
1519.536645	706.5
1520.053664	707.0
1520.570628	705.5
1521.087537	711.5
1521.604392	717.0
1522.121192	710.0
1522.637937	717.5
1523.154628	711.5
1523.671265	732.5
1524.704374	716.5
1525.220847	713.0
1525.737265	717.0
1526.253629	712.5
1526.769938	714.0
1527.286192	711.0
1527.802392	712.5
1528.318538	720.5
1528.834629	712.5
1529.350666	715.5
1529.866648	715.5
1530.382575	713.0
1530.898448	716.0
1531.414266	750.0
1532.961395	721.0
1533.476995	711.5
1533.992541	713.0
1534.508033	708.5
1535.02347	717.0
1535.538852	713.5
1536.05418	711.0
1536.569454	718.5
1537.084673	718.5
1537.599837	714.0
1538.114947	713.0
1538.630003	711.5
1539.145004	715.0
1539.659951	711.0
1540.174843	713.0
1540.689681	706.0
1541.204465	718.0
1541.719194	705.5
1542.233868	711.5
1542.748488	718.0
1543.263054	709.0
1543.777565	713.0
1544.292022	711.0
1544.806424	710.5
1545.320772	717.0
1545.835066	716.5
1546.349305	716.5
1546.863489	709.5
1547.37762	713.0
1547.891696	713.5
1548.405717	709.5
1548.919684	710.0
1549.433597	714.5
1549.947455	717.0
1550.461259	716.5
1550.975009	707.5
1551.488704	712.0
1552.002345	711.0
1552.515931	714.5
1553.029463	706.5
1553.542941	713.0
1554.056364	711.0
1554.569733	711.0
1555.083048	713.0
1555.596308	709.0
1556.109514	713.5
1556.622665	716.5
1557.135762	711.0
1557.648805	708.0
1558.161794	712.5
1558.674728	712.0
1559.187608	715.0
1559.700433	712.0
1560.213205	704.0
1560.725921	712.5
1561.238584	707.5
1561.751192	712.0
1562.263746	714.5
1562.776246	713.5
1563.288691	716.5
1563.801082	715.5
1564.313419	713.0
1564.825701	711.5
1565.337929	723.5
1565.850103	712.5
1566.362223	713.5
1566.874288	708.5
1567.386299	720.5
1567.898256	711.5
1568.410158	707.5
1568.922007	710.0
1569.4338	713.0
1569.94554	702.5
1570.457226	722.0
1570.968857	714.5
1571.480434	715.5
1571.991956	717.5
1572.503425	710.0
1573.014839	714.5
1573.526199	713.0
1574.037505	720.5
1574.548756	710.5
1575.059953	715.5
1575.571096	711.0
1576.082185	712.5
1576.59322	717.5
1577.1042	712.0
1577.615126	704.5
1578.125998	718.5
1578.636816	716.0
1579.14758	705.0
1579.658289	717.5
1580.168944	714.5
1580.679545	712.0
1581.190092	709.0
1581.700585	709.5
1582.211023	709.0
1582.721407	708.5
1583.231737	712.0
1583.742013	716.0
1584.252235	715.5
1584.762403	715.5
1585.272516	714.5
1585.782575	707.0
1586.292581	711.0
1586.802532	709.5
1587.312428	710.5
1587.822271	712.0
1588.33206	718.5
1588.841794	714.0
1589.351474	707.5
1589.8611	710.0
1590.370672	711.0
1590.88019	711.5
1591.389654	709.5
1591.899064	710.0
1592.408419	716.0
