1042.452273	667.4000244
1043.018714	666.7999878
1043.585098	668.5999756
1044.151424	667.2000122
1044.717692	666.0
1045.283903	664.4000244
1045.850056	668.2000122
1046.416151	667.4000244
1046.982188	665.2000122
1047.548167	661.2000122
1048.114089	663.4000244
1048.679953	662.2000122
1049.24576	663.7999878
1049.811509	661.2000122
1050.3772	661.4000244
1050.942833	661.4000244
1051.508408	661.0
1052.073926	660.2000122
1052.639387	664.0
1053.204789	662.4000244
1053.770134	661.5999756
1054.335421	661.2000122
1054.900651	661.5999756
1055.465823	660.7999878
1056.030937	662.7999878
1056.595993	661.5999756
1057.160992	659.4000244
1057.725934	658.5999756
1058.290817	661.0
1058.855643	663.0
1059.420411	661.2000122
1059.985122	660.5999756
1060.549775	660.4000244
1061.114371	662.2000122
1061.678908	662.0
1062.243389	661.2000122
1062.807811	661.5999756
1063.372176	660.0
1063.936483	659.7999878
1064.500733	662.4000244
1065.064925	661.2000122
1065.62906	660.4000244
1066.193137	660.7999878
1066.757156	658.7999878
1067.321118	659.7999878
1067.885022	660.7999878
1068.448869	661.0
1069.012658	658.4000244
1069.57639	658.2000122
1070.140063	666.2000122
1070.70368	659.5999756
1071.267239	661.4000244
1071.83074	658.0
1072.394184	659.2000122
1072.95757	659.5999756
1073.520899	659.7999878
1074.08417	658.7999878
1074.647383	661.0
1075.21054	659.7999878
1075.773638	661.0
1076.336679	661.7999878
1076.899663	660.4000244
1077.462589	657.7999878
1078.025457	659.2000122
1078.588268	658.2000122
1079.151022	660.7999878
1079.713718	658.7999878
1080.276356	659.4000244
1080.838937	661.0
1081.401461	659.5999756
1081.963927	659.2000122
1082.526336	662.2000122
1083.088687	659.5999756
1083.650981	656.7999878
1084.213217	658.4000244
1084.775396	660.2000122
1085.337517	659.2000122
1085.899581	661.4000244
1086.461587	658.7999878
1087.023536	657.5999756
1087.585428	658.4000244
1088.147262	659.4000244
1088.709039	660.4000244
1089.270758	659.4000244
1089.83242	658.5999756
1090.394024	660.2000122
1090.955571	657.4000244
1091.517061	657.0
1092.078493	657.5999756
1092.639868	659.7999878
1093.201185	659.4000244
1093.762445	659.7999878
1094.323648	658.0
1094.884793	658.2000122
1095.445881	660.7999878
1096.006911	659.5999756
1096.567884	660.0
1097.1288	664.7999878
1097.689659	661.2000122
1098.25046	660.4000244
1098.811203	660.2000122
1099.37189	655.5999756
1099.932518	661.5999756
1100.49309	658.2000122
1101.053604	658.7999878
1101.614061	659.4000244
1102.174461	657.5999756
1102.734803	657.7999878
1103.295088	660.2000122
1103.855316	658.7999878
1104.415486	660.2000122
1104.975599	660.5999756
1105.535655	659.7999878
1106.095653	661.2000122
1106.655594	657.4000244
1107.215478	660.5999756
1107.775305	660.4000244
1108.335074	659.0
1108.894786	657.4000244
1109.45444	660.7999878
1110.014038	661.4000244
1110.573578	660.4000244
1111.133061	659.7999878
1111.692486	658.5999756
1112.251854	658.7999878
1112.811165	660.0
1113.370419	662.4000244
1113.929616	660.7999878
1114.488755	656.7999878
1115.047837	659.7999878
1115.606862	658.0
1116.16583	660.0
1116.72474	659.0
1117.283593	660.2000122
1117.842389	658.7999878
1118.401128	657.4000244
1118.959809	660.5999756
1119.518433	658.0
1120.077	657.5999756
1120.63551	656.5999756
1121.193963	659.4000244
1121.752358	659.5999756
1122.310697	658.7999878
1122.868978	658.5999756
1123.427202	659.7999878
1123.985368	656.2000122
1124.543478	660.5999756
1125.10153	658.0
1125.659526	660.4000244
1126.217464	657.4000244
1126.775345	658.7999878
1127.333168	659.0
1127.890935	659.2000122
1128.448644	660.2000122
1129.006297	658.7999878
1129.563892	657.4000244
1130.12143	659.0
1130.678911	658.4000244
1131.236335	657.5999756
1131.793701	658.4000244
1132.351011	659.4000244
1132.908263	660.7999878
1133.465458	659.2000122
1134.022597	656.2000122
1134.579678	659.0
1135.136702	658.7999878
1135.693669	658.7999878
1136.250578	660.2000122
1136.807431	657.0
1137.364227	659.0
1137.920965	658.5999756
1138.477647	659.2000122
1139.034271	656.7999878
1139.590839	658.7999878
1140.147349	657.7999878
1140.703802	658.7999878
1141.260198	660.0
1141.816537	659.0
1142.37282	660.0
1142.929045	660.0
1143.485213	661.4000244
1144.041323	662.0
1144.597377	659.7999878
1145.153374	657.4000244
1145.709314	661.4000244
1146.265197	660.0
1146.821023	658.5999756
1147.376792	659.7999878
1147.932503	662.2000122
1148.488158	659.2000122
1149.043756	661.0
1149.599297	660.5999756
1150.154781	664.4000244
1150.710207	673.5999756
1151.265577	667.5999756
1151.82089	664.0
1152.376146	661.4000244
1152.931345	660.2000122
1153.486487	659.2000122
1154.041572	658.5999756
1154.5966	659.5999756
1155.151571	660.0
1155.706485	659.0
1156.261342	660.2000122
1156.816142	658.7999878
1157.370885	659.7999878
1157.925572	658.4000244
1158.480201	658.7999878
1159.034774	659.4000244
1159.589289	657.4000244
1160.143748	658.5999756
1160.698149	657.4000244
1161.252494	658.2000122
1161.806782	659.0
1162.361013	660.0
1162.915187	656.4000244
1163.469304	658.0
1164.023364	659.4000244
1164.577368	658.5999756
1165.131314	658.7999878
1165.685204	657.4000244
1166.239036	659.5999756
1166.792812	659.7999878
1167.346531	655.4000244
1167.900193	658.2000122
1168.453798	659.2000122
1169.007347	660.5999756
1169.560838	660.2000122
1170.114273	658.5999756
1170.66765	661.0
1171.220971	657.7999878
1171.774235	660.5999756
1172.327443	659.7999878
1172.880593	659.2000122
1173.433687	659.7999878
1173.986723	660.2000122
1174.539703	659.2000122
1175.092626	660.4000244
1175.645493	658.7999878
1176.198302	656.4000244
1176.751055	658.5999756
1177.303751	658.0
1177.85639	656.7999878
1178.408972	657.2000122
1178.961498	658.5999756
1179.513966	659.7999878
1180.066378	657.0
1180.618733	657.0
1181.171032	660.0
1181.723273	657.7999878
1182.275458	656.5999756
1182.827586	660.0
1183.379657	658.0
1183.931672	661.5999756
1184.48363	660.2000122
1185.035531	657.4000244
1185.587375	657.5999756
1186.139162	658.2000122
1186.690893	659.7999878
1187.242567	658.0
1187.794184	661.7999878
1188.345745	657.7999878
1188.897249	660.7999878
1189.448696	661.0
1190.000086	659.4000244
1190.55142	659.2000122
1191.102697	658.2000122
1191.653918	658.7999878
1192.205081	658.5999756
1192.756188	659.5999756
1193.858232	659.2000122
1194.409169	660.0
1194.960049	659.4000244
1195.510872	660.7999878
1196.061639	657.4000244
1196.612349	660.0
1197.163003	654.5999756
1197.713599	659.7999878
1198.264139	659.4000244
1198.814623	660.5999756
1199.36505	657.2000122
1199.91542	659.4000244
1200.465734	658.7999878
1201.01599	658.7999878
1201.566191	659.2000122
1202.116334	659.0
1202.666421	657.0
1203.216452	659.0
1203.766425	659.5999756
1204.316343	660.0
1204.866203	656.0
1205.416007	660.0
1205.965754	656.7999878
1206.515445	659.7999878
1207.065079	659.0
1207.614657	659.5999756
1208.164177	657.7999878
1208.713642	660.0
1209.26305	655.7999878
1209.812401	658.7999878
1210.361695	658.5999756
1210.910933	659.7999878
1211.460115	659.0
1212.00924	660.4000244
1212.558308	658.7999878
1213.10732	661.5999756
1213.656275	659.2000122
1214.205174	659.2000122
1214.754016	659.5999756
1215.302801	660.2000122
1215.85153	657.2000122
1216.400203	656.0
1216.948819	659.2000122
1217.497378	659.2000122
1218.045881	658.0
1218.594327	659.5999756
1219.142717	658.0
1219.691051	658.2000122
1220.239327	661.2000122
1220.787548	660.4000244
1221.335712	660.4000244
1221.883819	658.7999878
1222.43187	659.7999878
1222.979864	660.0
1223.527802	659.4000244
1224.075683	660.2000122
1224.623508	660.5999756
1225.171277	660.0
1225.718989	661.2000122
1226.266644	658.5999756
1226.814243	660.7999878
1227.361786	659.2000122
1227.909272	659.2000122
1228.456702	658.7999878
1229.004075	659.0
1229.551392	658.2000122
1230.098652	659.5999756
1230.645856	657.5999756
1231.193003	659.2000122
1231.740094	660.4000244
1232.287129	659.5999756
1232.834107	658.7999878
1233.381029	659.7999878
1233.927894	657.7999878
1234.474703	658.7999878
1235.021455	662.0
1235.568151	656.7999878
1236.114791	657.5999756
1236.661374	663.5999756
1237.207901	658.5999756
1237.754372	658.2000122
1238.300786	659.7999878
1238.847144	658.2000122
1239.393445	658.0
1239.93969	660.4000244
1240.485879	658.5999756
1241.032011	662.4000244
1241.578087	658.7999878
1242.124106	660.0
1242.67007	660.2000122
1243.215976	659.5999756
1243.761827	660.5999756
1244.307621	660.5999756
1244.853359	659.2000122
1245.39904	659.2000122
1245.944665	658.4000244
1246.490234	659.2000122
1247.035746	658.4000244
1247.581203	662.0
1248.126602	660.5999756
1248.671946	659.5999756
1249.217233	660.0
1249.762464	659.4000244
1250.307638	659.4000244
1250.852757	661.4000244
1251.397819	659.0
1251.942824	659.7999878
1252.487774	660.0
1253.032667	660.0
1253.577503	659.0
1254.122284	660.5999756
1254.667008	662.5999756
1255.211676	661.5999756
1255.756288	658.5999756
1256.300843	660.5999756
1256.845342	657.7999878
1257.389785	661.5999756
1257.934172	659.5999756
1258.478502	659.4000244
1259.022776	659.7999878
1259.566994	659.7999878
1260.111156	668.5999756
1260.655261	658.5999756
1261.199311	657.7999878
1261.743304	659.0
1262.28724	660.4000244
1262.831121	658.5999756
1263.374945	658.2000122
1263.918713	659.0
1264.462425	660.0
1265.006081	663.2000122
1265.54968	664.4000244
1266.093223	661.4000244
1266.636711	661.7999878
1267.180141	660.2000122
1267.723516	659.5999756
1268.266835	660.5999756
1268.810097	658.2000122
1269.353303	659.0
1269.896453	660.5999756
1270.439547	661.2000122
1270.982584	660.7999878
1271.525566	658.5999756
1272.068491	659.5999756
1272.61136	657.7999878
1273.154173	658.0
1273.69693	659.0
1274.239631	659.4000244
1274.782275	659.4000244
1275.324864	658.2000122
1275.867396	662.5999756
1276.409872	658.2000122
1276.952292	661.5999756
1277.494656	660.2000122
1278.036964	659.4000244
1278.579215	658.2000122
1279.121411	655.0
1279.66355	662.2000122
1280.205634	659.7999878
1280.747661	657.7999878
1281.289632	660.4000244
1281.831547	660.4000244
1282.373406	661.4000244
1282.915209	660.5999756
1283.456955	661.2000122
1283.998646	662.4000244
1284.540281	671.0
1285.081859	694.0
1285.623381	710.5999756
1286.164848	689.0
1286.706258	665.5999756
1287.247612	662.4000244
1287.788911	662.4000244
1288.330153	660.5999756
1288.871339	661.0
1289.412469	658.5999756
1289.953543	661.5999756
1290.494561	658.0
1291.035523	659.2000122
1291.576428	661.2000122
1292.117278	659.0
1292.658072	660.4000244
1293.19881	660.0
1293.739492	657.7999878
1294.280118	661.0
1294.820687	662.0
1295.361201	660.5999756
1295.901659	661.4000244
1296.442061	661.0
1296.982406	660.2000122
1297.522696	660.5999756
1298.06293	659.0
1298.603108	659.0
1299.143229	661.5999756
1299.683295	661.5999756
1300.223305	660.5999756
1300.763259	661.4000244
1301.303157	661.7999878
1301.842999	659.2000122
1302.382785	659.4000244
1302.922515	659.0
1303.462189	660.5999756
1304.001807	656.2000122
1304.541369	658.2000122
1305.080875	660.2000122
1305.620326	659.4000244
1306.15972	658.5999756
1306.699058	659.4000244
1307.238341	661.0
1307.777567	662.2000122
1308.316738	657.7999878
1308.855853	658.4000244
1309.394912	659.2000122
1309.933915	659.5999756
1310.472862	658.7999878
1311.011753	655.7999878
1311.550588	661.2000122
1312.089367	660.7999878
1312.62809	660.4000244
1313.166758	658.2000122
1313.70537	661.4000244
1314.243925	658.5999756
1314.782425	659.4000244
1315.320869	659.7999878
1315.859257	662.2000122
1316.397589	661.4000244
1316.935866	660.7999878
1317.474086	658.4000244
1318.012251	660.4000244
1318.55036	660.0
1319.088413	659.4000244
1319.62641	659.5999756
1320.164351	661.7999878
1320.702236	656.7999878
1321.240066	659.5999756
1321.777839	660.2000122
1322.315557	658.5999756
1322.853219	659.0
1323.390826	660.4000244
1323.928376	664.5999756
1324.465871	657.7999878
1325.003309	660.5999756
1325.540692	661.2000122
1326.07802	659.5999756
1326.615291	658.2000122
1327.152506	661.5999756
1327.689666	656.7999878
1328.22677	659.7999878
1328.763818	658.0
1329.300811	658.7999878
1329.837747	663.2000122
1330.374628	660.5999756
1330.911453	659.0
1331.448222	659.5999756
1331.984936	661.0
1332.521594	659.5999756
1333.058196	661.2000122
1333.594742	660.7999878
1334.131232	659.5999756
1334.667667	659.7999878
1335.204046	660.5999756
1335.740369	658.2000122
1336.276637	659.4000244
1336.812848	660.4000244
1337.349004	658.4000244
1337.885105	661.0
1338.421149	658.2000122
1338.957138	660.4000244
1339.493071	659.5999756
1340.028949	662.4000244
1340.56477	661.5999756
1341.100536	661.0
1341.636246	661.0
1342.171901	662.0
1342.7075	657.7999878
1343.243043	661.7999878
1343.77853	661.5999756
1344.313962	657.5999756
1344.849338	660.7999878
1345.384659	661.2000122
1345.919923	659.0
1346.455133	660.4000244
1346.990286	662.5999756
1347.525384	660.5999756
1348.060426	661.5999756
1348.595412	661.0
1349.130343	659.5999756
1349.665218	659.4000244
1350.200037	659.5999756
1350.734801	661.0
1351.269509	660.4000244
1351.804162	662.4000244
1352.338758	659.7999878
1352.8733	659.4000244
1353.407785	658.7999878
1353.942215	659.4000244
1354.476589	660.7999878
1355.010908	660.5999756
1355.545171	658.7999878
1356.079379	656.4000244
1356.61353	660.4000244
1357.147627	661.2000122
1357.681667	663.2000122
1358.215652	660.0
1358.749582	660.5999756
1359.283456	663.2000122
1359.817274	658.5999756
1360.351037	662.0
1360.884744	660.5999756
1361.418395	658.4000244
1361.951991	662.0
1362.485531	660.4000244
1363.019016	661.2000122
1363.552445	659.4000244
1364.085819	661.2000122
1364.619137	661.2000122
1365.1524	661.4000244
1365.685607	661.4000244
1366.218758	661.7999878
1366.751854	659.7999878
1367.284894	660.4000244
1367.817879	661.0
1368.350808	660.5999756
1368.883682	662.4000244
1369.4165	661.2000122
1369.949263	660.5999756
1370.48197	662.5999756
1371.014622	662.5999756
1371.547218	660.0
1372.079758	658.2000122
1372.612244	660.2000122
1373.144673	661.0
1373.677047	660.0
1374.209366	660.2000122
1374.741629	660.0
1375.273836	661.2000122
1375.805989	661.5999756
1376.338085	660.5999756
1376.870126	661.4000244
1377.402112	660.7999878
1377.934042	663.0
1378.465917	659.0
1378.997736	661.2000122
1379.5295	662.7999878
1380.061208	660.7999878
1380.592861	660.4000244
1381.124459	659.4000244
1381.656	661.0
1382.187487	664.0
1382.718918	663.4000244
1383.250294	661.0
1383.781614	660.5999756
1384.312879	661.4000244
1384.844088	661.0
1385.375242	661.2000122
1385.90634	664.0
1386.437383	660.5999756
1386.968371	664.2000122
1387.499303	667.7999878
1388.03018	679.0
1388.561001	730.2000122
1389.091767	747.4000244
1389.622478	685.7999878
1390.153133	668.0
1390.683733	662.4000244
1391.214277	662.2000122
1391.744766	662.7999878
1392.2752	662.4000244
1392.805578	663.7999878
1393.335901	660.2000122
1393.866168	664.2000122
1394.396381	662.7999878
1394.926537	663.4000244
1395.456639	660.4000244
1395.986685	662.4000244
1396.516675	662.7999878
1397.046611	660.4000244
1397.576491	659.4000244
1398.106315	661.0
1398.636084	661.5999756
1399.165798	663.0
1399.695457	663.2000122
1400.22506	663.2000122
1400.754608	662.7999878
1401.284101	660.0
1401.813538	660.0
1402.34292	661.0
1402.872247	662.7999878
1403.401518	657.4000244
1403.930734	661.4000244
1404.459895	658.7999878
1404.989	661.7999878
1405.51805	663.4000244
1406.047045	662.2000122
1406.575984	661.2000122
1407.104869	658.4000244
1407.633697	659.4000244
1408.162471	660.5999756
1408.691189	659.2000122
1409.219852	661.4000244
1409.74846	663.2000122
1410.277013	667.4000244
1410.80551	665.0
1411.333952	660.7999878
1411.862339	659.4000244
1412.39067	659.7999878
1412.918946	659.0
1413.447167	660.7999878
1413.975333	661.7999878
1414.503444	660.2000122
1415.031499	659.2000122
1415.559499	670.4000244
1416.087444	660.0
1416.615333	660.0
1417.143167	659.7999878
1417.670947	661.0
1418.19867	662.2000122
1418.726339	659.4000244
1419.253952	661.4000244
1419.781511	661.0
1420.309014	659.7999878
1420.836461	661.4000244
1421.363854	660.0
1421.891191	660.2000122
1422.418474	660.2000122
1422.945701	659.0
1423.472872	660.4000244
1423.999989	661.0
1424.52705	661.2000122
1425.054057	659.5999756
1425.581008	660.2000122
1426.107904	660.7999878
1426.634745	661.2000122
1427.16153	660.5999756
1427.688261	658.2000122
1428.214936	661.2000122
1428.741556	660.7999878
1429.268121	660.7999878
1429.794631	659.7999878
1430.321085	661.2000122
1430.847485	659.4000244
1431.373829	662.0
1431.900118	659.5999756
1432.426353	660.5999756
1432.952532	661.0
1433.478655	659.2000122
1434.004724	661.0
1434.530738	661.5999756
1435.056696	661.0
1435.5826	659.4000244
1436.108448	662.5999756
1436.634241	662.0
1437.159979	660.5999756
1437.685662	663.5999756
1438.21129	663.2000122
1438.736863	659.7999878
1439.262381	659.7999878
1439.787843	659.7999878
1440.313251	663.7999878
1440.838603	664.4000244
1441.3639	661.0
1441.889143	660.2000122
1442.41433	660.4000244
1442.939462	657.5999756
1443.464539	661.0
1443.989561	660.4000244
1444.514528	660.0
1445.03944	661.2000122
1445.564297	663.5999756
1446.089099	662.4000244
1446.613846	660.0
1447.138537	660.7999878
1447.663174	662.5999756
1448.187756	663.0
1448.712282	659.7999878
1449.236754	660.5999756
1449.761171	662.5999756
1450.285532	661.5999756
1450.809839	662.4000244
1451.33409	660.0
1451.858287	661.5999756
1452.382428	662.2000122
1452.906515	662.5999756
1453.430546	662.7999878
1453.954523	662.4000244
1454.478444	659.0
1455.002311	662.0
1455.526123	661.2000122
1456.049879	661.2000122
1456.573581	659.4000244
1457.097227	661.4000244
1457.620819	658.2000122
1458.144356	659.5999756
1458.667837	661.4000244
1459.191264	660.2000122
1459.714636	660.7999878
1460.237952	661.0
1460.761214	660.5999756
1461.284421	662.2000122
1461.807573	660.5999756
1462.33067	662.5999756
1462.853712	662.5999756
1463.376699	661.2000122
1463.899632	660.0
1464.422509	663.4000244
1464.945331	661.7999878
1465.468099	660.5999756
1465.990811	659.0
1466.513469	662.7999878
1467.036071	659.5999756
1467.558619	659.2000122
1468.081112	662.0
1468.60355	661.2000122
1469.125933	663.5999756
1469.648261	662.0
1470.170534	662.7999878
1470.692752	659.0
1471.214916	660.7999878
1471.737024	662.5999756
1472.259078	663.5999756
1472.781077	661.0
1473.303021	660.4000244
1473.82491	661.7999878
1474.346744	660.0
1474.868523	662.5999756
1475.390248	661.5999756
1475.911917	662.0
1476.433532	662.4000244
1476.955092	657.0
1477.476597	661.5999756
1477.998047	661.7999878
1478.519442	661.2000122
1479.040783	661.5999756
1479.562068	663.4000244
1480.083299	663.2000122
1480.604475	664.0
1481.125596	659.4000244
1481.646663	662.4000244
1482.167674	662.5999756
1482.688631	661.0
1483.209533	660.5999756
1483.73038	659.2000122
1484.251172	660.5999756
1484.771909	661.4000244
1485.292592	660.5999756
1485.81322	659.7999878
1486.333793	660.2000122
1486.854311	661.5999756
1487.374775	663.0
1487.895183	659.2000122
1488.415537	660.0
1488.935836	660.2000122
1489.456081	660.2000122
1489.97627	661.7999878
1490.496405	660.4000244
1491.016485	659.5999756
1491.536511	660.2000122
1492.056481	660.0
1492.576397	659.0
1493.096258	664.4000244
1493.616064	660.5999756
1494.135816	660.4000244
1494.655513	660.4000244
1495.175155	662.2000122
1495.694742	661.0
1496.214274	659.7999878
1496.733752	659.7999878
1497.253175	660.4000244
1497.772544	659.4000244
1498.291858	662.0
1498.811116	662.2000122
1499.330321	660.2000122
1499.84947	667.0
1500.368565	660.5999756
1500.887605	660.5999756
1501.406591	659.0
1501.925521	658.5999756
1502.444397	661.5999756
1502.963219	661.2000122
1503.481985	659.2000122
1504.000697	661.4000244
1504.519355	661.4000244
1505.037957	659.2000122
1505.556505	660.5999756
1506.074999	660.7999878
1506.593437	660.7999878
1507.111821	660.4000244
1507.63015	662.2000122
1508.148425	660.7999878
1508.666645	659.7999878
1509.18481	660.0
1509.702921	661.0
1510.220977	661.0
1510.738979	666.7999878
1511.256925	660.2000122
1511.774817	660.4000244
1512.292655	662.5999756
1512.810438	658.2000122
1513.328166	660.2000122
1513.84584	661.2000122
1514.363459	661.4000244
1514.881023	661.2000122
1515.398533	661.0
1515.915988	660.2000122
1516.433389	662.2000122
1516.950734	661.5999756
1517.468026	660.5999756
1517.985263	661.7999878
1518.502445	662.5999756
1519.019572	659.2000122
1519.536645	661.4000244
1520.053664	661.2000122
1520.570628	659.2000122
1521.087537	663.0
1521.604392	659.4000244
1522.121192	659.7999878
1522.637937	663.2000122
1523.154628	663.4000244
1523.671265	660.7999878
1524.187847	660.7999878
1524.704374	661.2000122
1525.220847	660.5999756
1525.737265	662.7999878
1526.253629	663.5999756
1526.769938	660.0
1527.286192	661.5999756
1527.802392	661.7999878
1528.318538	660.4000244
1528.834629	659.4000244
1529.350666	663.5999756
1529.866648	663.4000244
1530.382575	661.5999756
1530.898448	662.2000122
1531.414266	661.2000122
1531.93003	662.5999756
1532.44574	660.2000122
1532.961395	661.0
1533.476995	660.2000122
1533.992541	658.0
1534.508033	660.4000244
1535.02347	660.0
1535.538852	659.0
1536.05418	662.5999756
1536.569454	659.4000244
1537.084673	660.7999878
1537.599837	660.7999878
1538.114947	661.0
1538.630003	661.4000244
1539.145004	659.2000122
1539.659951	662.5999756
1540.174843	662.4000244
1540.689681	660.4000244
1541.204465	660.0
1541.719194	659.7999878
1542.233868	659.5999756
1542.748488	661.0
1543.263054	659.5999756
1543.777565	661.2000122
1544.292022	661.2000122
1544.806424	661.5999756
1545.320772	661.5999756
1545.835066	661.2000122
1546.349305	660.2000122
1546.863489	661.0
1547.37762	661.4000244
1547.891696	662.0
1548.405717	662.4000244
1548.919684	660.7999878
1549.433597	661.0
1549.947455	663.0
1550.461259	660.0
1550.975009	661.2000122
1551.488704	660.7999878
1552.002345	661.7999878
1552.515931	661.7999878
1553.029463	661.0
1553.542941	660.0
1554.056364	659.4000244
1554.569733	660.5999756
1555.083048	660.4000244
1555.596308	660.5999756
1556.109514	661.4000244
1556.622665	658.7999878
1557.135762	661.4000244
1557.648805	661.0
1558.161794	659.5999756
1558.674728	658.5999756
1559.187608	661.0
1559.700433	658.4000244
1560.213205	662.5999756
1560.725921	661.4000244
1561.238584	661.0
1561.751192	660.7999878
1562.263746	660.7999878
1562.776246	660.0
1563.288691	661.4000244
1563.801082	660.4000244
1564.313419	658.2000122
1564.825701	659.0
1565.337929	659.7999878
1565.850103	659.5999756
1566.362223	663.7999878
1566.874288	660.4000244
1567.386299	659.7999878
1567.898256	662.7999878
1568.410158	659.4000244
1568.922007	661.2000122
1569.4338	661.4000244
1569.94554	658.7999878
1570.457226	662.5999756
1570.968857	660.7999878
1571.480434	661.5999756
1571.991956	659.5999756
1572.503425	659.5999756
1573.014839	658.7999878
1573.526199	658.2000122
1574.037505	659.5999756
1574.548756	660.5999756
1575.059953	659.7999878
1575.571096	659.7999878
1576.082185	656.7999878
1576.59322	658.5999756
1577.1042	659.0
1577.615126	659.0
1578.125998	660.0
1578.636816	658.5999756
1579.14758	658.4000244
1579.658289	659.5999756
1580.168944	659.2000122
1580.679545	659.5999756
1581.190092	660.5999756
1581.700585	658.0
1582.211023	657.7999878
1582.721407	658.4000244
1583.231737	660.5999756
1583.742013	661.4000244
1584.252235	662.5999756
1584.762403	659.0
1585.272516	659.4000244
1585.782575	660.2000122
1586.292581	660.5999756
1586.802532	660.5999756
1587.312428	661.0
1587.822271	659.7999878
1588.33206	660.2000122
1588.841794	658.5999756
1589.351474	659.0
1589.8611	660.7999878
1590.370672	660.2000122
1590.88019	660.4000244
1591.389654	656.5999756
1591.899064	659.7999878
1592.408419	657.5999756
