1042.452273	666.7999878
1043.018714	670.0
1043.585098	666.2000122
1044.151424	667.2000122
1044.717692	666.5999756
1045.283903	665.0
1045.850056	666.2000122
1046.416151	663.2000122
1046.982188	665.4000244
1047.548167	661.5999756
1048.114089	663.2000122
1048.679953	665.2000122
1049.24576	665.4000244
1049.811509	662.5999756
1050.3772	664.7999878
1050.942833	661.7999878
1051.508408	661.2000122
1052.073926	664.2000122
1052.639387	661.2000122
1053.204789	663.7999878
1053.770134	662.2000122
1054.335421	665.4000244
1054.900651	663.0
1055.465823	660.7999878
1056.030937	661.2000122
1056.595993	658.7999878
1057.160992	663.0
1057.725934	661.0
1058.290817	661.2000122
1058.855643	658.5999756
1059.420411	661.4000244
1059.985122	660.5999756
1060.549775	661.0
1061.114371	660.5999756
1061.678908	660.7999878
1062.243389	661.2000122
1062.807811	660.2000122
1063.372176	660.5999756
1063.936483	660.4000244
1064.500733	660.0
1065.064925	657.7999878
1065.62906	660.0
1066.193137	660.4000244
1066.757156	659.5999756
1067.321118	660.2000122
1067.885022	660.2000122
1068.448869	659.5999756
1069.012658	659.7999878
1069.57639	662.0
1070.140063	665.4000244
1070.70368	660.0
1071.267239	660.5999756
1071.83074	657.5999756
1072.394184	658.7999878
1072.95757	661.2000122
1073.520899	658.5999756
1074.08417	659.7999878
1074.647383	659.4000244
1075.21054	658.2000122
1075.773638	657.4000244
1076.336679	659.4000244
1076.899663	659.4000244
1077.462589	659.2000122
1078.025457	661.4000244
1078.588268	661.4000244
1079.151022	658.4000244
1079.713718	658.4000244
1080.276356	658.5999756
1080.838937	657.4000244
1081.401461	659.7999878
1081.963927	661.0
1082.526336	661.5999756
1083.088687	661.0
1083.650981	659.2000122
1084.213217	658.5999756
1084.775396	660.2000122
1085.337517	655.7999878
1085.899581	659.2000122
1086.461587	660.5999756
1087.023536	659.2000122
1087.585428	658.4000244
1088.147262	660.4000244
1088.709039	662.0
1089.270758	658.4000244
1089.83242	657.7999878
1090.394024	660.7999878
1090.955571	662.4000244
1091.517061	661.4000244
1092.078493	658.4000244
1092.639868	660.4000244
1093.201185	660.2000122
1093.762445	660.5999756
1094.323648	658.0
1094.884793	659.2000122
1095.445881	658.0
1096.006911	659.7999878
1096.567884	660.0
1097.1288	665.7999878
1097.689659	658.4000244
1098.25046	661.7999878
1098.811203	659.0
1099.37189	658.5999756
1099.932518	657.5999756
1100.49309	658.4000244
1101.053604	660.5999756
1101.614061	659.4000244
1102.174461	660.5999756
1102.734803	657.7999878
1103.295088	660.7999878
1103.855316	660.7999878
1104.415486	659.2000122
1104.975599	659.2000122
1105.535655	658.2000122
1106.095653	660.0
1106.655594	661.0
1107.215478	658.7999878
1107.775305	659.0
1108.335074	660.0
1108.894786	661.7999878
1109.45444	661.2000122
1110.014038	657.5999756
1110.573578	659.5999756
1111.133061	657.4000244
1111.692486	660.5999756
1112.251854	659.7999878
1112.811165	660.5999756
1113.370419	656.4000244
1113.929616	660.4000244
1114.488755	660.4000244
1115.047837	661.5999756
1115.606862	661.5999756
1116.16583	659.7999878
1116.72474	659.5999756
1117.283593	661.5999756
1117.842389	658.4000244
1118.401128	661.0
1118.959809	660.2000122
1119.518433	660.2000122
1120.077	658.4000244
1120.63551	659.7999878
1121.193963	658.0
1121.752358	659.7999878
1122.310697	656.4000244
1122.868978	663.2000122
1123.427202	661.0
1123.985368	660.0
1124.543478	661.0
1125.10153	662.0
1125.659526	659.4000244
1126.217464	660.5999756
1126.775345	659.5999756
1127.333168	660.4000244
1127.890935	661.5999756
1128.448644	660.7999878
1129.006297	662.2000122
1129.563892	662.4000244
1130.12143	661.2000122
1130.678911	662.5999756
1131.236335	660.4000244
1131.793701	661.7999878
1132.351011	659.4000244
1132.908263	659.4000244
1133.465458	660.0
1134.022597	659.5999756
1134.579678	659.7999878
1135.136702	659.7999878
1135.693669	661.7999878
1136.250578	663.2000122
1136.807431	661.5999756
1137.364227	661.2000122
1137.920965	660.0
1138.477647	662.2000122
1139.034271	660.7999878
1139.590839	660.2000122
1140.147349	658.5999756
1140.703802	660.5999756
1141.260198	660.7999878
1141.816537	662.0
1142.37282	658.7999878
1142.929045	667.2000122
1143.485213	670.4000244
1144.041323	665.7999878
1144.597377	666.4000244
1145.153374	661.5999756
1145.709314	662.0
1146.265197	660.4000244
1146.821023	669.2000122
1147.376792	676.7999878
1147.932503	676.5999756
1148.488158	671.2000122
1149.043756	672.5999756
1149.599297	680.4000244
1150.154781	724.7999878
1150.710207	821.4000244
1151.265577	772.0
1151.82089	691.0
1152.376146	671.7999878
1152.931345	663.2000122
1153.486487	661.7999878
1154.041572	660.0
1154.5966	661.2000122
1155.151571	664.2000122
1155.706485	659.5999756
1156.261342	661.4000244
1156.816142	662.0
1157.370885	659.4000244
1157.925572	661.0
1158.480201	660.4000244
1159.034774	660.7999878
1159.589289	659.2000122
1160.143748	661.2000122
1160.698149	659.0
1161.252494	658.5999756
1161.806782	662.2000122
1162.361013	662.0
1162.915187	661.2000122
1163.469304	660.5999756
1164.023364	661.5999756
1164.577368	660.2000122
1165.131314	658.4000244
1165.685204	659.7999878
1166.239036	659.7999878
1166.792812	658.0
1167.346531	660.5999756
1167.900193	661.4000244
1168.453798	659.0
1169.007347	659.4000244
1169.560838	661.2000122
1170.114273	657.4000244
1170.66765	660.4000244
1171.220971	661.5999756
1171.774235	660.0
1172.327443	662.4000244
1172.880593	659.7999878
1173.433687	659.0
1173.986723	659.4000244
1174.539703	659.2000122
1175.092626	659.0
1175.645493	658.5999756
1176.198302	659.0
1176.751055	660.2000122
1177.303751	660.2000122
1177.85639	658.5999756
1178.408972	660.7999878
1178.961498	660.7999878
1179.513966	660.2000122
1180.066378	660.4000244
1180.618733	659.2000122
1181.171032	656.4000244
1181.723273	660.5999756
1182.275458	661.4000244
1182.827586	658.5999756
1183.379657	660.0
1183.931672	660.0
1184.48363	659.2000122
1185.035531	659.4000244
1185.587375	661.7999878
1186.139162	660.2000122
1186.690893	661.7999878
1187.242567	660.4000244
1187.794184	660.5999756
1188.345745	657.4000244
1188.897249	661.7999878
1189.448696	661.2000122
1190.000086	658.7999878
1190.55142	657.4000244
1191.102697	662.2000122
1191.653918	660.5999756
1192.205081	658.5999756
1192.756188	659.5999756
1193.858232	658.0
1194.409169	659.0
1194.960049	661.4000244
1195.510872	659.5999756
1196.061639	659.0
1196.612349	657.7999878
1197.163003	659.2000122
1197.713599	658.5999756
1198.264139	656.4000244
1198.814623	660.2000122
1199.36505	657.4000244
1199.91542	658.5999756
1200.465734	660.5999756
1201.01599	659.2000122
1201.566191	659.0
1202.116334	660.4000244
1202.666421	658.5999756
1203.216452	660.2000122
1203.766425	658.0
1204.316343	660.7999878
1204.866203	658.7999878
1205.416007	660.0
1205.965754	659.0
1206.515445	658.4000244
1207.065079	660.2000122
1207.614657	661.2000122
1208.164177	659.4000244
1208.713642	660.4000244
1209.26305	659.5999756
1209.812401	661.0
1210.361695	659.4000244
1210.910933	660.2000122
1211.460115	659.7999878
1212.00924	657.5999756
1212.558308	658.5999756
1213.10732	661.4000244
1213.656275	660.5999756
1214.205174	659.0
1214.754016	660.5999756
1215.302801	660.0
1215.85153	659.2000122
1216.400203	658.4000244
1216.948819	659.5999756
1217.497378	658.7999878
1218.045881	659.4000244
1218.594327	660.0
1219.142717	658.4000244
1219.691051	660.2000122
1220.239327	661.5999756
1220.787548	659.2000122
1221.335712	660.5999756
1221.883819	660.7999878
1222.43187	658.7999878
1222.979864	660.0
1223.527802	661.2000122
1224.075683	661.4000244
1224.623508	660.7999878
1225.171277	662.0
1225.718989	657.5999756
1226.266644	661.7999878
1226.814243	659.7999878
1227.361786	660.5999756
1227.909272	659.0
1228.456702	658.7999878
1229.004075	660.5999756
1229.551392	661.5999756
1230.098652	661.4000244
1230.645856	661.0
1231.193003	661.5999756
1231.740094	660.4000244
1232.287129	659.5999756
1232.834107	659.7999878
1233.381029	659.0
1233.927894	661.4000244
1234.474703	660.0
1235.021455	659.4000244
1235.568151	657.4000244
1236.114791	661.2000122
1236.661374	663.0
1237.207901	661.5999756
1237.754372	656.2000122
1238.300786	662.0
1238.847144	659.7999878
1239.393445	660.7999878
1239.93969	660.2000122
1240.485879	660.4000244
1241.032011	662.5999756
1241.578087	661.4000244
1242.124106	659.7999878
1242.67007	659.5999756
1243.215976	661.0
1243.761827	661.5999756
1244.307621	662.2000122
1244.853359	656.7999878
1245.39904	660.4000244
1245.944665	659.0
1246.490234	661.4000244
1247.035746	662.2000122
1247.581203	661.2000122
1248.126602	662.0
1248.671946	662.0
1249.217233	661.4000244
1249.762464	662.7999878
1250.307638	659.5999756
1250.852757	662.0
1251.397819	664.2000122
1251.942824	658.5999756
1252.487774	663.7999878
1253.032667	658.4000244
1253.577503	663.4000244
1254.122284	662.0
1254.667008	661.7999878
1255.211676	661.4000244
1255.756288	661.4000244
1256.300843	660.2000122
1256.845342	661.2000122
1257.389785	660.0
1257.934172	660.4000244
1258.478502	663.4000244
1259.022776	663.7999878
1259.566994	668.0
1260.111156	672.5999756
1260.655261	660.2000122
1261.199311	664.5999756
1261.743304	661.7999878
1262.28724	664.0
1262.831121	665.0
1263.374945	664.4000244
1263.918713	670.5999756
1264.462425	678.4000244
1265.006081	691.4000244
1265.54968	696.2000122
1266.093223	680.4000244
1266.636711	669.2000122
1267.180141	665.2000122
1267.723516	662.4000244
1268.266835	663.7999878
1268.810097	662.4000244
1269.353303	663.2000122
1269.896453	661.4000244
1270.439547	664.0
1270.982584	662.2000122
1271.525566	663.7999878
1272.068491	661.0
1272.61136	664.0
1273.154173	660.4000244
1273.69693	663.7999878
1274.239631	659.4000244
1274.782275	660.5999756
1275.324864	661.7999878
1275.867396	662.2000122
1276.409872	662.7999878
1276.952292	663.7999878
1277.494656	661.0
1278.036964	662.5999756
1278.579215	661.7999878
1279.121411	662.0
1279.66355	664.4000244
1280.205634	665.2000122
1280.747661	665.4000244
1281.289632	663.2000122
1281.831547	667.0
1282.373406	666.5999756
1282.915209	673.7999878
1283.456955	682.4000244
1283.998646	705.5999756
1284.540281	761.5999756
1285.081859	988.2000122
1285.623381	1186.0
1286.164848	932.2000122
1286.706258	738.5999756
1287.247612	687.7999878
1287.788911	676.0
1288.330153	672.5999756
1288.871339	666.4000244
1289.412469	669.5999756
1289.953543	667.0
1290.494561	662.5999756
1291.035523	665.2000122
1291.576428	660.7999878
1292.117278	662.5999756
1292.658072	661.4000244
1293.19881	662.2000122
1293.739492	662.0
1294.280118	666.4000244
1294.820687	662.7999878
1295.361201	665.0
1295.901659	661.5999756
1296.442061	664.0
1296.982406	661.7999878
1297.522696	660.7999878
1298.06293	663.5999756
1298.603108	661.4000244
1299.143229	663.2000122
1299.683295	662.0
1300.223305	663.4000244
1300.763259	661.5999756
1301.303157	660.7999878
1301.842999	662.0
1302.382785	664.5999756
1302.922515	662.2000122
1303.462189	659.4000244
1304.001807	664.0
1304.541369	661.0
1305.080875	660.4000244
1305.620326	661.5999756
1306.15972	662.0
1306.699058	660.7999878
1307.238341	661.0
1307.777567	662.2000122
1308.316738	661.0
1308.855853	664.0
1309.394912	661.7999878
1309.933915	662.0
1310.472862	663.0
1311.011753	661.0
1311.550588	660.7999878
1312.089367	662.2000122
1312.62809	663.0
1313.166758	663.0
1313.70537	662.5999756
1314.243925	662.0
1314.782425	661.5999756
1315.320869	660.4000244
1315.859257	661.7999878
1316.397589	662.7999878
1316.935866	662.2000122
1317.474086	663.0
1318.012251	661.2000122
1318.55036	661.2000122
1319.088413	663.0
1319.62641	661.5999756
1320.164351	662.4000244
1320.702236	662.0
1321.240066	661.7999878
1321.777839	658.7999878
1322.315557	662.0
1322.853219	661.4000244
1323.390826	661.5999756
1323.928376	663.7999878
1324.465871	661.0
1325.003309	661.4000244
1325.540692	662.4000244
1326.07802	661.7999878
1326.615291	662.7999878
1327.152506	661.4000244
1327.689666	664.7999878
1328.22677	661.5999756
1328.763818	661.5999756
1329.300811	663.2000122
1329.837747	661.5999756
1330.374628	660.4000244
1330.911453	660.7999878
1331.448222	661.2000122
1331.984936	661.4000244
1332.521594	661.5999756
1333.058196	662.4000244
1333.594742	661.4000244
1334.131232	666.0
1334.667667	661.7999878
1335.204046	664.2000122
1335.740369	660.4000244
1336.276637	659.0
1336.812848	660.4000244
1337.349004	665.0
1337.885105	663.4000244
1338.421149	661.4000244
1338.957138	660.7999878
1339.493071	662.5999756
1340.028949	661.7999878
1340.56477	662.0
1341.100536	663.7999878
1341.636246	661.5999756
1342.171901	660.7999878
1342.7075	663.2000122
1343.243043	662.2000122
1343.77853	660.0
1344.313962	661.0
1344.849338	659.2000122
1345.384659	661.2000122
1345.919923	662.7999878
1346.455133	661.0
1346.990286	661.0
1347.525384	661.2000122
1348.060426	664.5999756
1348.595412	660.4000244
1349.130343	661.7999878
1349.665218	658.7999878
1350.200037	662.5999756
1350.734801	662.2000122
1351.269509	661.7999878
1351.804162	660.2000122
1352.338758	664.5999756
1352.8733	662.2000122
1353.407785	662.4000244
1353.942215	663.0
1354.476589	660.7999878
1355.010908	660.2000122
1355.545171	660.5999756
1356.079379	661.7999878
1356.61353	661.2000122
1357.147627	661.5999756
1357.681667	662.4000244
1358.215652	661.2000122
1358.749582	663.4000244
1359.283456	662.4000244
1359.817274	664.2000122
1360.351037	663.7999878
1360.884744	663.7999878
1361.418395	662.0
1361.951991	662.0
1362.485531	665.0
1363.019016	663.7999878
1363.552445	663.4000244
1364.085819	660.5999756
1364.619137	664.5999756
1365.1524	662.5999756
1365.685607	663.5999756
1366.218758	664.7999878
1366.751854	664.2000122
1367.284894	664.0
1367.817879	660.7999878
1368.350808	660.7999878
1368.883682	663.0
1369.4165	662.2000122
1369.949263	666.5999756
1370.48197	676.2000122
1371.014622	670.5999756
1371.547218	662.7999878
1372.079758	662.7999878
1372.612244	663.2000122
1373.144673	663.0
1373.677047	661.4000244
1374.209366	662.2000122
1374.741629	660.7999878
1375.273836	663.7999878
1375.805989	663.0
1376.338085	664.5999756
1376.870126	663.2000122
1377.402112	662.7999878
1377.934042	663.4000244
1378.465917	663.7999878
1378.997736	663.5999756
1379.5295	662.0
1380.061208	664.2000122
1380.592861	663.4000244
1381.124459	664.4000244
1381.656	664.0
1382.187487	663.5999756
1382.718918	663.2000122
1383.250294	664.7999878
1383.781614	663.0
1384.312879	665.7999878
1384.844088	671.7999878
1385.375242	668.5999756
1385.90634	672.5999756
1386.437383	682.2000122
1386.968371	690.4000244
1387.499303	727.2000122
1388.03018	868.5999756
1388.561001	1388.0
1389.091767	1498.800049
1389.622478	926.0
1390.153133	729.0
1390.683733	691.4000244
1391.214277	679.4000244
1391.744766	673.0
1392.2752	670.5999756
1392.805578	667.5999756
1393.335901	667.7999878
1393.866168	667.2000122
1394.396381	665.7999878
1394.926537	664.7999878
1395.456639	665.4000244
1395.986685	666.5999756
1396.516675	662.2000122
1397.046611	663.2000122
1397.576491	662.2000122
1398.106315	662.0
1398.636084	662.7999878
1399.165798	663.5999756
1399.695457	660.4000244
1400.22506	662.7999878
1400.754608	660.0
1401.284101	662.5999756
1401.813538	664.2000122
1402.34292	661.5999756
1402.872247	661.2000122
1403.401518	662.0
1403.930734	663.0
1404.459895	663.2000122
1404.989	665.2000122
1405.51805	664.4000244
1406.047045	665.2000122
1406.575984	665.5999756
1407.104869	663.4000244
1407.633697	663.7999878
1408.162471	665.4000244
1408.691189	672.0
1409.219852	679.5999756
1409.74846	704.7999878
1410.277013	733.5999756
1410.80551	701.7999878
1411.333952	673.0
1411.862339	665.7999878
1412.39067	664.4000244
1412.918946	664.5999756
1413.447167	661.5999756
1413.975333	661.7999878
1414.503444	663.0
1415.031499	661.2000122
1415.559499	673.5999756
1416.087444	660.0
1416.615333	663.4000244
1417.143167	659.7999878
1417.670947	661.5999756
1418.19867	661.5999756
1418.726339	662.5999756
1419.253952	661.5999756
1419.781511	659.5999756
1420.309014	662.4000244
1420.836461	660.5999756
1421.363854	661.5999756
1421.891191	662.4000244
1422.418474	661.2000122
1422.945701	661.7999878
1423.472872	657.7999878
1423.999989	658.0
1424.52705	662.5999756
1425.054057	660.4000244
1425.581008	664.2000122
1426.107904	664.2000122
1426.634745	662.4000244
1427.16153	662.2000122
1427.688261	661.7999878
1428.214936	661.4000244
1428.741556	661.0
1429.268121	659.5999756
1429.794631	661.4000244
1430.321085	660.7999878
1430.847485	659.5999756
1431.373829	661.0
1431.900118	660.5999756
1432.426353	661.0
1432.952532	661.7999878
1433.478655	660.2000122
1434.004724	660.2000122
1434.530738	661.4000244
1435.056696	661.5999756
1435.5826	661.4000244
1436.108448	659.5999756
1436.634241	660.5999756
1437.159979	657.5999756
1437.685662	662.2000122
1438.21129	657.0
1438.736863	660.4000244
1439.262381	659.7999878
1439.787843	659.4000244
1440.313251	660.2000122
1440.838603	657.5999756
1441.3639	662.5999756
1441.889143	660.5999756
1442.41433	660.7999878
1442.939462	658.7999878
1443.464539	659.5999756
1443.989561	657.5999756
1444.514528	661.2000122
1445.03944	660.7999878
1445.564297	659.2000122
1446.089099	657.5999756
1446.613846	660.4000244
1447.138537	658.0
1447.663174	658.7999878
1448.187756	659.7999878
1448.712282	657.4000244
1449.236754	658.0
1449.761171	658.5999756
1450.285532	658.7999878
1450.809839	660.5999756
1451.33409	656.2000122
1451.858287	659.0
1452.382428	658.5999756
1452.906515	660.0
1453.430546	659.2000122
1453.954523	657.2000122
1454.478444	658.5999756
1455.002311	658.0
1455.526123	660.5999756
1456.049879	657.7999878
1456.573581	658.4000244
1457.097227	658.4000244
1457.620819	657.4000244
1458.144356	659.7999878
1458.667837	658.4000244
1459.191264	655.7999878
1459.714636	657.7999878
1460.237952	659.2000122
1460.761214	658.7999878
1461.284421	658.7999878
1461.807573	659.7999878
1462.33067	659.4000244
1462.853712	661.0
1463.376699	658.7999878
1463.899632	658.0
1464.422509	661.7999878
1464.945331	658.5999756
1465.468099	661.0
1465.990811	658.2000122
1466.513469	657.7999878
1467.036071	660.2000122
1467.558619	661.7999878
1468.081112	659.0
1468.60355	658.5999756
1469.125933	659.0
1469.648261	657.7999878
1470.170534	659.5999756
1470.692752	656.7999878
1471.214916	658.2000122
1471.737024	658.0
1472.259078	656.4000244
1472.781077	660.2000122
1473.303021	657.4000244
1473.82491	657.2000122
1474.346744	659.7999878
1474.868523	657.4000244
1475.390248	657.5999756
1475.911917	659.4000244
1476.433532	656.5999756
1476.955092	658.5999756
1477.476597	660.0
1477.998047	657.5999756
1478.519442	659.0
1479.040783	659.0
1479.562068	658.0
1480.083299	659.5999756
1480.604475	654.7999878
1481.125596	657.0
1481.646663	657.2000122
1482.167674	658.2000122
1482.688631	660.4000244
1483.209533	657.4000244
1483.73038	660.2000122
1484.251172	657.7999878
1484.771909	659.4000244
1485.292592	658.5999756
1485.81322	656.5999756
1486.333793	659.4000244
1486.854311	657.4000244
1487.374775	658.0
1487.895183	657.5999756
1488.415537	660.2000122
1488.935836	656.2000122
1489.456081	659.2000122
1489.97627	660.5999756
1490.496405	657.0
1491.016485	658.4000244
1491.536511	658.0
1492.056481	657.0
1492.576397	658.5999756
1493.096258	657.0
1493.616064	657.2000122
1494.135816	656.2000122
1494.655513	658.0
1495.175155	658.4000244
1495.694742	659.5999756
1496.214274	656.2000122
1496.733752	656.7999878
1497.253175	656.7999878
1497.772544	656.7999878
1498.291858	660.0
1498.811116	658.4000244
1499.330321	655.2000122
1499.84947	664.5999756
1500.368565	659.7999878
1500.887605	655.2000122
1501.406591	658.4000244
1501.925521	659.2000122
1502.444397	659.0
1502.963219	657.4000244
1503.481985	659.4000244
1504.000697	657.0
1504.519355	657.2000122
1505.037957	659.0
1505.556505	657.0
1506.074999	658.2000122
1506.593437	658.5999756
1507.111821	658.4000244
1507.63015	658.4000244
1508.148425	659.2000122
1508.666645	657.5999756
1509.18481	657.5999756
1509.702921	658.4000244
1510.220977	659.0
1510.738979	663.7999878
1511.256925	658.4000244
1511.774817	659.4000244
1512.292655	658.2000122
1512.810438	659.7999878
1513.328166	657.4000244
1513.84584	659.0
1514.363459	658.2000122
1514.881023	656.4000244
1515.398533	657.2000122
1515.915988	655.5999756
1516.433389	660.2000122
1516.950734	657.5999756
1517.468026	655.7999878
1517.985263	656.4000244
1518.502445	658.7999878
1519.019572	655.5999756
1519.536645	655.2000122
1520.053664	655.5999756
1520.570628	658.4000244
1521.087537	657.0
1521.604392	659.4000244
1522.121192	657.2000122
1522.637937	659.7999878
1523.154628	657.0
1523.671265	659.2000122
1524.187847	656.2000122
1524.704374	657.5999756
1525.220847	657.0
1525.737265	658.5999756
1526.253629	656.4000244
1526.769938	657.7999878
1527.286192	659.2000122
1527.802392	659.7999878
1528.318538	655.5999756
1528.834629	658.2000122
1529.350666	657.5999756
1529.866648	660.5999756
1530.382575	656.2000122
1530.898448	660.4000244
1531.414266	658.7999878
1531.93003	654.7999878
1532.44574	657.7999878
1532.961395	657.4000244
1533.476995	657.7999878
1533.992541	659.2000122
1534.508033	657.2000122
1535.02347	658.7999878
1535.538852	657.0
1536.05418	656.4000244
1536.569454	656.7999878
1537.084673	657.2000122
1537.599837	655.4000244
1538.114947	657.4000244
1538.630003	657.0
1539.145004	658.7999878
1539.659951	658.4000244
1540.174843	657.7999878
1540.689681	657.0
1541.204465	657.2000122
1541.719194	659.2000122
1542.233868	659.2000122
1542.748488	658.4000244
1543.263054	659.4000244
1543.777565	656.5999756
1544.292022	659.7999878
1544.806424	655.7999878
1545.320772	657.7999878
1545.835066	656.5999756
1546.349305	658.5999756
1546.863489	657.0
1547.37762	659.4000244
1547.891696	657.5999756
1548.405717	656.7999878
1548.919684	658.0
1549.433597	658.2000122
1549.947455	656.7999878
1550.461259	655.0
1550.975009	657.2000122
1551.488704	659.2000122
1552.002345	657.4000244
1552.515931	658.5999756
1553.029463	705.5999756
1554.569733	659.5999756
1555.083048	658.2000122
1555.596308	658.2000122
1556.109514	657.7999878
1556.622665	656.2000122
1557.135762	657.0
1557.648805	660.5999756
1558.161794	658.0
1558.674728	658.5999756
1559.187608	655.0
1559.700433	659.4000244
1560.213205	655.7999878
1560.725921	658.7999878
1561.238584	658.0
1561.751192	658.2000122
1562.263746	657.5999756
1562.776246	657.7999878
1563.288691	658.7999878
1563.801082	657.7999878
1564.313419	659.2000122
1564.825701	657.7999878
1565.337929	657.7999878
1565.850103	659.0
1566.362223	656.7999878
1566.874288	656.4000244
1567.386299	660.0
1567.898256	658.2000122
1568.410158	659.2000122
1568.922007	658.2000122
1569.4338	657.2000122
1569.94554	658.0
1570.457226	657.4000244
1570.968857	660.7999878
1571.480434	659.5999756
1571.991956	657.5999756
1572.503425	657.2000122
1573.014839	657.7999878
1573.526199	658.7999878
1574.037505	658.7999878
1574.548756	658.5999756
1575.059953	658.7999878
1575.571096	658.5999756
1576.082185	656.7999878
1576.59322	657.0
1577.1042	657.2000122
1577.615126	657.7999878
1578.125998	657.0
1578.636816	656.7999878
1579.14758	656.2000122
1579.658289	657.2000122
1580.168944	658.4000244
1580.679545	655.7999878
1581.190092	659.2000122
1581.700585	657.0
1582.211023	657.7999878
1582.721407	659.2000122
1583.231737	656.7999878
1583.742013	660.2000122
1584.252235	657.0
1584.762403	657.7999878
1585.272516	657.7999878
1585.782575	657.2000122
1586.292581	659.0
1586.802532	656.4000244
1587.312428	657.2000122
1587.822271	657.0
1588.33206	656.4000244
1588.841794	658.7999878
1589.351474	659.7999878
1589.8611	656.7999878
1590.370672	658.4000244
1590.88019	658.4000244
1591.389654	657.5999756
1591.899064	658.0
1592.408419	656.7999878
