1042.452273	668.0
1043.018714	668.2000122
1043.585098	666.7999878
1044.151424	666.5999756
1044.717692	663.7999878
1045.283903	665.0
1045.850056	665.0
1046.416151	665.2000122
1046.982188	664.0
1047.548167	665.7999878
1048.114089	664.5999756
1048.679953	664.2000122
1049.24576	664.0
1049.811509	663.0
1050.3772	663.7999878
1050.942833	664.5999756
1051.508408	661.0
1052.073926	662.0
1052.639387	661.2000122
1053.204789	661.2000122
1053.770134	663.4000244
1054.335421	661.4000244
1054.900651	661.4000244
1055.465823	662.4000244
1056.030937	660.2000122
1056.595993	664.5999756
1057.160992	658.5999756
1057.725934	661.2000122
1058.290817	658.2000122
1058.855643	660.0
1059.420411	660.5999756
1059.985122	661.4000244
1060.549775	659.7999878
1061.114371	663.4000244
1061.678908	660.0
1062.243389	657.7999878
1062.807811	659.4000244
1063.372176	663.4000244
1063.936483	660.5999756
1064.500733	661.5999756
1065.064925	658.7999878
1065.62906	661.2000122
1066.193137	659.0
1066.757156	660.2000122
1067.321118	660.7999878
1067.885022	660.0
1068.448869	659.7999878
1069.012658	659.4000244
1069.57639	658.5999756
1070.140063	667.0
1070.70368	657.7999878
1071.267239	661.0
1071.83074	660.2000122
1072.394184	662.0
1072.95757	660.7999878
1073.520899	658.0
1074.08417	661.5999756
1074.647383	658.2000122
1075.21054	659.2000122
1075.773638	658.0
1076.336679	660.2000122
1076.899663	659.5999756
1077.462589	659.0
1078.025457	660.5999756
1078.588268	658.7999878
1079.151022	660.0
1079.713718	659.5999756
1080.276356	661.2000122
1080.838937	659.2000122
1081.401461	661.0
1081.963927	658.0
1082.526336	660.5999756
1083.088687	659.4000244
1083.650981	664.0
1084.213217	659.5999756
1084.775396	660.2000122
1085.337517	658.0
1085.899581	660.7999878
1086.461587	662.7999878
1087.023536	662.0
1087.585428	658.7999878
1088.147262	658.0
1088.709039	658.2000122
1089.270758	659.5999756
1089.83242	660.0
1090.394024	658.5999756
1090.955571	659.5999756
1091.517061	659.2000122
1092.078493	660.0
1092.639868	659.4000244
1093.201185	660.0
1093.762445	659.0
1094.323648	659.5999756
1094.884793	657.4000244
1095.445881	658.4000244
1096.006911	658.4000244
1096.567884	658.2000122
1097.1288	665.0
1097.689659	661.2000122
1098.25046	659.2000122
1098.811203	659.0
1099.37189	658.5999756
1099.932518	660.4000244
1100.49309	659.0
1101.053604	658.5999756
1101.614061	660.2000122
1102.174461	658.0
1102.734803	658.7999878
1103.295088	657.4000244
1103.855316	659.0
1104.415486	659.0
1104.975599	658.4000244
1105.535655	662.5999756
1106.095653	659.5999756
1106.655594	658.4000244
1107.215478	659.5999756
1107.775305	659.7999878
1108.335074	661.5999756
1108.894786	660.2000122
1109.45444	659.2000122
1110.014038	658.7999878
1110.573578	657.7999878
1111.133061	658.7999878
1111.692486	661.5999756
1112.251854	658.7999878
1112.811165	658.7999878
1113.370419	659.2000122
1113.929616	661.5999756
1114.488755	658.7999878
1115.047837	658.4000244
1115.606862	660.5999756
1116.16583	663.0
1116.72474	658.4000244
1117.283593	662.4000244
1117.842389	659.0
1118.401128	659.7999878
1118.959809	657.5999756
1119.518433	661.5999756
1120.077	660.7999878
1120.63551	660.0
1121.193963	659.5999756
1121.752358	658.2000122
1122.310697	659.5999756
1122.868978	658.2000122
1123.427202	660.5999756
1123.985368	657.2000122
1124.543478	657.7999878
1125.10153	660.4000244
1125.659526	659.5999756
1126.217464	659.0
1126.775345	658.5999756
1127.333168	661.4000244
1127.890935	660.5999756
1128.448644	658.0
1129.006297	658.5999756
1129.563892	658.4000244
1130.12143	660.2000122
1130.678911	661.0
1131.236335	659.5999756
1131.793701	658.5999756
1132.351011	658.4000244
1132.908263	659.7999878
1133.465458	661.5999756
1134.022597	660.2000122
1134.579678	659.5999756
1135.136702	659.5999756
1135.693669	660.0
1136.250578	659.4000244
1136.807431	659.5999756
1137.364227	660.7999878
1137.920965	660.2000122
1138.477647	661.7999878
1139.034271	660.4000244
1139.590839	658.2000122
1140.147349	660.2000122
1140.703802	661.7999878
1141.260198	657.5999756
1141.816537	656.7999878
1142.37282	661.7999878
1142.929045	666.2000122
1143.485213	670.2000122
1144.041323	665.5999756
1144.597377	663.2000122
1145.153374	663.0
1145.709314	662.0
1146.265197	661.4000244
1146.821023	666.7999878
1147.376792	673.2000122
1147.932503	671.0
1148.488158	668.5999756
1149.043756	667.4000244
1149.599297	678.5999756
1150.154781	722.0
1150.710207	809.5999756
1151.265577	753.4000244
1151.82089	680.7999878
1152.376146	668.4000244
1152.931345	664.0
1153.486487	661.5999756
1154.041572	662.5999756
1154.5966	662.2000122
1155.151571	657.7999878
1155.706485	661.5999756
1156.261342	662.0
1156.816142	661.7999878
1157.370885	660.5999756
1157.925572	661.2000122
1158.480201	660.2000122
1159.034774	659.0
1159.589289	661.2000122
1160.143748	657.4000244
1160.698149	658.2000122
1161.252494	660.4000244
1161.806782	658.7999878
1162.361013	660.2000122
1162.915187	659.7999878
1163.469304	660.2000122
1164.023364	660.7999878
1164.577368	657.7999878
1165.131314	658.7999878
1165.685204	658.7999878
1166.239036	660.7999878
1166.792812	659.0
1167.346531	662.0
1167.900193	658.4000244
1168.453798	658.4000244
1169.007347	657.2000122
1169.560838	659.7999878
1170.114273	660.2000122
1170.66765	658.5999756
1171.220971	661.5999756
1171.774235	661.5999756
1172.327443	658.7999878
1172.880593	659.7999878
1173.433687	659.7999878
1173.986723	660.4000244
1174.539703	662.2000122
1175.092626	660.4000244
1175.645493	659.7999878
1176.198302	660.5999756
1176.751055	661.4000244
1177.303751	658.0
1177.85639	659.2000122
1178.408972	660.5999756
1178.961498	659.4000244
1179.513966	661.4000244
1180.066378	661.2000122
1180.618733	660.4000244
1181.171032	658.4000244
1181.723273	658.0
1182.275458	660.0
1182.827586	658.7999878
1183.379657	659.4000244
1183.931672	658.7999878
1184.48363	658.5999756
1185.035531	659.4000244
1185.587375	657.5999756
1186.139162	659.5999756
1186.690893	661.2000122
1187.242567	661.2000122
1187.794184	659.2000122
1188.345745	679.0
1189.448696	664.7999878
1190.000086	662.2000122
1190.55142	658.0
1191.102697	660.0
1191.653918	657.7999878
1192.205081	659.0
1192.756188	660.0
1193.858232	657.0
1194.409169	659.2000122
1194.960049	659.7999878
1195.510872	657.5999756
1196.061639	659.7999878
1196.612349	661.0
1197.163003	659.7999878
1197.713599	661.4000244
1198.264139	660.7999878
1198.814623	658.7999878
1199.36505	659.7999878
1199.91542	658.0
1200.465734	658.7999878
1201.01599	659.2000122
1201.566191	659.7999878
1202.116334	657.0
1202.666421	659.5999756
1203.216452	661.0
1203.766425	657.0
1204.316343	657.7999878
1204.866203	659.4000244
1205.416007	658.7999878
1205.965754	660.2000122
1206.515445	658.7999878
1207.065079	659.0
1207.614657	659.5999756
1208.164177	659.2000122
1208.713642	659.7999878
1209.26305	660.0
1209.812401	661.7999878
1210.361695	656.7999878
1210.910933	659.5999756
1211.460115	659.2000122
1212.00924	658.7999878
1212.558308	659.5999756
1213.10732	662.2000122
1213.656275	660.4000244
1214.205174	661.2000122
1214.754016	660.2000122
1215.302801	659.5999756
1215.85153	659.2000122
1216.400203	659.5999756
1216.948819	657.5999756
1217.497378	659.7999878
1218.045881	658.7999878
1218.594327	658.4000244
1219.142717	661.0
1219.691051	662.2000122
1220.239327	662.2000122
1220.787548	659.7999878
1221.335712	658.0
1221.883819	657.7999878
1222.43187	660.5999756
1222.979864	661.2000122
1223.527802	661.0
1224.075683	661.4000244
1224.623508	660.5999756
1225.171277	659.5999756
1225.718989	660.5999756
1226.266644	659.7999878
1226.814243	659.7999878
1227.361786	660.4000244
1227.909272	660.7999878
1228.456702	658.7999878
1229.004075	658.7999878
1229.551392	661.5999756
1230.098652	660.4000244
1230.645856	658.2000122
1231.193003	658.5999756
1231.740094	661.4000244
1232.287129	658.7999878
1232.834107	661.0
1233.381029	659.4000244
1233.927894	661.2000122
1234.474703	658.4000244
1235.021455	658.5999756
1235.568151	659.5999756
1236.114791	661.4000244
1236.661374	661.7999878
1237.207901	661.0
1237.754372	658.7999878
1238.300786	660.0
1238.847144	659.4000244
1239.393445	660.5999756
1239.93969	659.5999756
1240.485879	658.7999878
1241.032011	662.5999756
1241.578087	658.4000244
1242.124106	662.0
1242.67007	658.4000244
1243.215976	660.5999756
1243.761827	659.7999878
1244.307621	659.0
1244.853359	661.5999756
1245.39904	659.4000244
1245.944665	662.4000244
1246.490234	659.2000122
1247.035746	659.4000244
1247.581203	661.0
1248.126602	660.2000122
1248.671946	663.2000122
1249.217233	661.0
1249.762464	660.5999756
1250.307638	660.4000244
1250.852757	663.5999756
1251.397819	660.7999878
1251.942824	662.0
1252.487774	662.2000122
1253.032667	661.4000244
1253.577503	661.4000244
1254.122284	659.7999878
1254.667008	660.7999878
1255.211676	659.4000244
1255.756288	657.5999756
1256.300843	661.2000122
1256.845342	659.4000244
1257.389785	659.5999756
1257.934172	659.2000122
1258.478502	662.4000244
1259.022776	662.2000122
1259.566994	662.4000244
1260.111156	664.5999756
1260.655261	659.5999756
1261.199311	658.5999756
1261.743304	661.7999878
1262.28724	661.5999756
1262.831121	663.5999756
1263.374945	667.4000244
1263.918713	669.2000122
1264.462425	676.7999878
1265.006081	694.5999756
1265.54968	690.5999756
1266.093223	677.5999756
1266.636711	669.7999878
1267.180141	663.2000122
1267.723516	664.4000244
1268.266835	664.5999756
1268.810097	661.4000244
1269.353303	661.5999756
1269.896453	662.2000122
1270.439547	662.0
1270.982584	660.4000244
1271.525566	661.5999756
1272.068491	662.2000122
1272.61136	661.2000122
1273.154173	660.4000244
1273.69693	663.0
1274.239631	659.5999756
1274.782275	658.7999878
1275.324864	660.5999756
1275.867396	658.2000122
1276.409872	660.2000122
1276.952292	661.5999756
1277.494656	662.2000122
1278.036964	659.4000244
1278.579215	662.2000122
1279.121411	663.2000122
1279.66355	662.4000244
1280.205634	662.2000122
1280.747661	662.2000122
1281.289632	663.2000122
1281.831547	668.7999878
1282.373406	671.0
1282.915209	677.4000244
1283.456955	691.2000122
1283.998646	715.5999756
1284.540281	811.7999878
1285.081859	1061.400024
1285.623381	1208.400024
1286.164848	908.2000122
1286.706258	728.2000122
1287.247612	689.4000244
1287.788911	672.5999756
1288.330153	670.0
1288.871339	668.7999878
1289.412469	663.0
1289.953543	667.0
1290.494561	664.0
1291.035523	663.4000244
1291.576428	662.4000244
1292.117278	662.5999756
1292.658072	659.7999878
1293.19881	661.0
1293.739492	658.5999756
1294.280118	661.0
1294.820687	661.2000122
1295.361201	661.4000244
1295.901659	659.7999878
1296.442061	659.7999878
1296.982406	660.4000244
1297.522696	660.2000122
1298.06293	663.2000122
1298.603108	659.7999878
1299.143229	660.4000244
1299.683295	660.2000122
1300.223305	660.7999878
1300.763259	662.0
1301.303157	658.7999878
1301.842999	661.2000122
1302.382785	661.2000122
1302.922515	660.4000244
1303.462189	661.0
1304.001807	660.7999878
1304.541369	660.5999756
1305.080875	661.4000244
1305.620326	662.2000122
1306.15972	658.4000244
1306.699058	659.7999878
1307.238341	661.0
1307.777567	660.0
1308.316738	661.5999756
1308.855853	661.7999878
1309.394912	660.5999756
1309.933915	659.0
1310.472862	659.5999756
1311.011753	659.5999756
1311.550588	660.4000244
1312.089367	660.2000122
1312.62809	659.2000122
1313.166758	658.4000244
1313.70537	658.7999878
1314.243925	660.4000244
1314.782425	660.2000122
1315.320869	659.0
1315.859257	661.4000244
1316.397589	659.2000122
1316.935866	658.4000244
1317.474086	661.0
1318.012251	660.4000244
1318.55036	664.0
1319.088413	662.4000244
1319.62641	659.4000244
1320.164351	657.5999756
1320.702236	660.2000122
1321.240066	663.0
1321.777839	657.7999878
1322.315557	659.2000122
1322.853219	660.5999756
1323.390826	659.2000122
1323.928376	661.4000244
1324.465871	659.0
1325.003309	661.2000122
1325.540692	659.4000244
1326.07802	659.0
1326.615291	660.2000122
1327.152506	659.0
1327.689666	661.5999756
1328.22677	662.5999756
1328.763818	660.4000244
1329.300811	660.2000122
1329.837747	658.5999756
1330.374628	661.7999878
1330.911453	661.0
1331.448222	661.0
1331.984936	661.2000122
1332.521594	661.4000244
1333.058196	659.7999878
1333.594742	661.4000244
1334.131232	660.2000122
1334.667667	661.7999878
1335.204046	660.5999756
1335.740369	660.7999878
1336.276637	660.4000244
1336.812848	660.7999878
1337.349004	662.4000244
1337.885105	660.4000244
1338.421149	662.5999756
1338.957138	660.0
1339.493071	660.5999756
1340.028949	659.7999878
1340.56477	660.4000244
1341.100536	660.2000122
1341.636246	663.0
1342.171901	658.4000244
1342.7075	658.0
1343.243043	661.2000122
1343.77853	659.7999878
1344.313962	659.2000122
1344.849338	659.0
1345.384659	661.0
1345.919923	659.4000244
1346.455133	661.7999878
1346.990286	662.0
1347.525384	662.0
1348.060426	660.5999756
1348.595412	659.5999756
1349.130343	660.7999878
1349.665218	660.5999756
1350.200037	659.5999756
1350.734801	661.2000122
1351.269509	660.7999878
1351.804162	660.0
1352.338758	659.2000122
1352.8733	661.5999756
1353.407785	660.5999756
1353.942215	663.0
1354.476589	661.0
1355.010908	662.7999878
1355.545171	661.0
1356.079379	660.4000244
1356.61353	659.7999878
1357.147627	659.7999878
1357.681667	660.4000244
1358.215652	659.7999878
1358.749582	659.0
1359.283456	661.5999756
1359.817274	658.0
1360.351037	660.7999878
1360.884744	660.5999756
1361.418395	662.2000122
1361.951991	661.2000122
1362.485531	661.4000244
1363.019016	659.0
1363.552445	658.7999878
1364.085819	660.4000244
1364.619137	662.4000244
1365.1524	661.0
1365.685607	661.5999756
1366.218758	663.2000122
1366.751854	663.4000244
1367.284894	662.2000122
1367.817879	662.5999756
1368.350808	664.0
1368.883682	660.7999878
1369.4165	658.4000244
1369.949263	664.7999878
1370.48197	678.0
1371.014622	670.4000244
1371.547218	663.0
1372.079758	662.7999878
1372.612244	661.4000244
1373.144673	659.2000122
1373.677047	661.0
1374.209366	661.5999756
1374.741629	661.0
1375.273836	659.4000244
1375.805989	662.2000122
1376.338085	659.7999878
1376.870126	663.0
1377.402112	661.2000122
1377.934042	659.4000244
1378.465917	661.4000244
1378.997736	662.0
1379.5295	664.4000244
1380.061208	665.0
1380.592861	661.4000244
1381.124459	662.7999878
1381.656	664.4000244
1382.187487	661.4000244
1382.718918	664.0
1383.250294	665.4000244
1383.781614	663.2000122
1384.312879	667.2000122
1384.844088	667.4000244
1385.375242	671.7999878
1385.90634	675.2000122
1386.437383	683.2000122
1386.968371	697.7999878
1387.499303	734.2000122
1388.03018	917.5999756
1388.561001	1482.599976
1389.091767	1500.199951
1389.622478	908.0
1390.153133	727.7999878
1390.683733	687.7999878
1391.214277	675.4000244
1391.744766	670.7999878
1392.2752	668.5999756
1392.805578	665.2000122
1393.335901	662.0
1393.866168	666.7999878
1394.396381	667.7999878
1394.926537	664.0
1395.456639	660.5999756
1395.986685	662.7999878
1396.516675	662.2000122
1397.046611	661.7999878
1397.576491	659.2000122
1398.106315	664.0
1398.636084	661.7999878
1399.165798	662.5999756
1399.695457	659.2000122
1400.22506	662.5999756
1400.754608	660.5999756
1401.284101	662.0
1401.813538	660.4000244
1402.34292	660.2000122
1402.872247	660.2000122
1403.401518	663.2000122
1403.930734	659.4000244
1404.459895	660.2000122
1404.989	661.7999878
1405.51805	660.4000244
1406.047045	660.5999756
1406.575984	662.0
1407.104869	665.2000122
1407.633697	664.7999878
1408.162471	667.5999756
1408.691189	670.4000244
1409.219852	683.5999756
1409.74846	713.0
1410.277013	734.0
1410.80551	700.4000244
1411.333952	676.2000122
1411.862339	669.5999756
1412.39067	664.2000122
1412.918946	662.2000122
1413.447167	659.5999756
1413.975333	661.4000244
1414.503444	660.2000122
1415.031499	660.5999756
1415.559499	668.0
1416.087444	662.5999756
1416.615333	660.5999756
1417.143167	659.7999878
1417.670947	661.2000122
1418.19867	661.2000122
1418.726339	658.7999878
1419.253952	662.5999756
1419.781511	659.4000244
1420.309014	662.2000122
1420.836461	659.4000244
1421.363854	657.4000244
1421.891191	662.0
1422.418474	660.7999878
1422.945701	661.0
1423.472872	659.7999878
1423.999989	660.4000244
1424.52705	661.7999878
1425.054057	661.2000122
1425.581008	661.2000122
1426.107904	663.2000122
1426.634745	660.7999878
1427.16153	661.2000122
1427.688261	660.7999878
1428.214936	662.2000122
1428.741556	657.0
1429.268121	657.7999878
1429.794631	659.2000122
1430.321085	659.0
1430.847485	657.2000122
1431.373829	657.7999878
1431.900118	660.0
1432.426353	660.2000122
1432.952532	658.5999756
1433.478655	658.4000244
1434.004724	659.5999756
1434.530738	659.5999756
1435.056696	660.7999878
1435.5826	658.7999878
1436.108448	659.7999878
1436.634241	657.5999756
1437.159979	658.0
1437.685662	661.2000122
1438.21129	657.4000244
1438.736863	659.4000244
1439.262381	657.7999878
1439.787843	657.5999756
1440.313251	657.7999878
1440.838603	658.0
1441.3639	659.0
1441.889143	658.2000122
1442.41433	659.0
1442.939462	661.5999756
1443.464539	660.4000244
1443.989561	657.5999756
1444.514528	659.4000244
1445.03944	656.7999878
1445.564297	661.5999756
1446.089099	658.5999756
1446.613846	660.4000244
1447.138537	660.2000122
1447.663174	658.4000244
1448.187756	659.2000122
1448.712282	659.2000122
1449.236754	657.2000122
1449.761171	658.5999756
1450.285532	657.7999878
1450.809839	659.0
1451.33409	657.2000122
1451.858287	658.2000122
1452.382428	656.7999878
1452.906515	658.4000244
1453.430546	659.5999756
1453.954523	659.4000244
1454.478444	659.5999756
1455.002311	656.2000122
1455.526123	656.7999878
1456.049879	658.2000122
1456.573581	658.4000244
1457.097227	658.7999878
1457.620819	658.4000244
1458.144356	660.4000244
1458.667837	658.5999756
1459.191264	658.5999756
1459.714636	660.0
1460.237952	657.5999756
1460.761214	658.5999756
1461.284421	658.2000122
1461.807573	658.4000244
1462.33067	658.7999878
1462.853712	657.5999756
1463.376699	658.7999878
1463.899632	658.4000244
1464.422509	659.0
1464.945331	659.7999878
1465.468099	660.5999756
1465.990811	656.7999878
1466.513469	657.7999878
1467.036071	658.2000122
1467.558619	657.5999756
1468.081112	658.5999756
1468.60355	656.4000244
1469.125933	658.5999756
1469.648261	657.5999756
1470.170534	659.5999756
1470.692752	657.0
1471.214916	658.7999878
1471.737024	656.7999878
1472.259078	659.4000244
1472.781077	657.5999756
1473.303021	656.2000122
1473.82491	658.2000122
1474.346744	656.4000244
1474.868523	658.4000244
1475.390248	659.2000122
1475.911917	659.4000244
1476.433532	659.5999756
1476.955092	658.4000244
1477.476597	659.2000122
1477.998047	656.7999878
1478.519442	659.2000122
1479.040783	657.5999756
1479.562068	657.7999878
1480.083299	662.0
1480.604475	658.0
1481.125596	657.7999878
1481.646663	656.2000122
1482.167674	659.4000244
1482.688631	657.0
1483.209533	655.0
1483.73038	656.0
1484.251172	655.5999756
1484.771909	657.5999756
1485.292592	658.0
1485.81322	659.4000244
1486.333793	659.2000122
1486.854311	657.5999756
1487.374775	655.5999756
1487.895183	659.0
1488.415537	659.2000122
1488.935836	656.4000244
1489.456081	659.5999756
1489.97627	659.4000244
1490.496405	655.2000122
1491.016485	657.2000122
1491.536511	655.4000244
1492.056481	656.2000122
1492.576397	656.2000122
1493.096258	656.5999756
1493.616064	658.4000244
1494.135816	656.7999878
1494.655513	656.5999756
1495.175155	657.4000244
1495.694742	660.0
1496.214274	656.4000244
1496.733752	657.2000122
1497.253175	658.0
1497.772544	658.7999878
1498.291858	657.7999878
1498.811116	657.5999756
1499.330321	655.0
1499.84947	662.2000122
1500.368565	658.2000122
1500.887605	656.7999878
1501.406591	659.2000122
1501.925521	658.2000122
1502.444397	658.0
1502.963219	656.7999878
1503.481985	657.0
1504.000697	657.2000122
1504.519355	657.2000122
1505.037957	657.5999756
1505.556505	657.7999878
1506.074999	658.4000244
1506.593437	657.7999878
1507.111821	655.7999878
1507.63015	658.5999756
1508.148425	657.0
1508.666645	656.4000244
1509.18481	657.4000244
1509.702921	657.0
1510.220977	659.7999878
1510.738979	662.7999878
1511.256925	656.2000122
1511.774817	657.4000244
1512.292655	657.2000122
1512.810438	655.4000244
1513.328166	659.2000122
1513.84584	655.7999878
1514.363459	657.5999756
1514.881023	656.4000244
1515.398533	658.0
1515.915988	655.5999756
1516.433389	658.0
1516.950734	659.2000122
1517.468026	655.2000122
1517.985263	655.7999878
1518.502445	656.7999878
1519.019572	656.5999756
1519.536645	656.5999756
1520.053664	656.7999878
1520.570628	658.5999756
1521.087537	656.2000122
1521.604392	658.2000122
1522.121192	656.7999878
1522.637937	656.7999878
1523.154628	657.7999878
1523.671265	659.4000244
1524.187847	656.4000244
1524.704374	658.5999756
1525.220847	656.7999878
1525.737265	657.2000122
1526.253629	657.5999756
1526.769938	658.5999756
1527.286192	657.7999878
1527.802392	657.4000244
1528.318538	655.7999878
1528.834629	659.4000244
1529.350666	659.5999756
1529.866648	659.0
1530.382575	658.5999756
1530.898448	656.5999756
1531.414266	658.4000244
1531.93003	658.2000122
1532.44574	655.7999878
1532.961395	658.0
1533.476995	658.5999756
1533.992541	657.2000122
1534.508033	656.2000122
1535.02347	657.0
1535.538852	656.7999878
1536.05418	655.7999878
1536.569454	657.4000244
1537.084673	656.0
1537.599837	655.0
1538.114947	656.5999756
1538.630003	656.4000244
1539.145004	656.4000244
1539.659951	655.4000244
1540.174843	657.4000244
1540.689681	656.0
1541.204465	656.2000122
1541.719194	656.2000122
1542.233868	657.7999878
1542.748488	658.4000244
1543.263054	658.5999756
1543.777565	657.2000122
1544.292022	655.2000122
1544.806424	655.2000122
1545.320772	656.2000122
1545.835066	656.4000244
1546.349305	656.7999878
1546.863489	658.2000122
1547.37762	655.7999878
1547.891696	658.4000244
1548.405717	658.0
1548.919684	656.2000122
1549.433597	658.0
1549.947455	657.0
1550.461259	657.5999756
1550.975009	658.4000244
1551.488704	658.7999878
1552.002345	657.4000244
1552.515931	659.7999878
1553.029463	656.0
1553.542941	655.2000122
1554.056364	657.5999756
1554.569733	657.7999878
1555.083048	657.2000122
1555.596308	658.0
1556.109514	656.7999878
1556.622665	657.4000244
1557.135762	656.0
1557.648805	658.0
1558.161794	657.7999878
1558.674728	656.7999878
1559.187608	658.2000122
1559.700433	655.7999878
1560.213205	656.7999878
1560.725921	655.7999878
1561.238584	658.4000244
1561.751192	656.7999878
1562.263746	655.2000122
1562.776246	657.2000122
1563.288691	657.7999878
1563.801082	657.7999878
1564.313419	658.2000122
1564.825701	657.7999878
1565.337929	656.4000244
1565.850103	656.5999756
1566.362223	656.5999756
1566.874288	657.2000122
1567.386299	659.5999756
1567.898256	658.4000244
1568.410158	658.5999756
1568.922007	657.7999878
1569.4338	654.2000122
1569.94554	657.7999878
1570.457226	657.5999756
1570.968857	655.0
1571.480434	655.7999878
1571.991956	657.5999756
1572.503425	655.7999878
1573.014839	657.7999878
1573.526199	658.4000244
1574.037505	656.4000244
1574.548756	655.7999878
1575.059953	657.5999756
1575.571096	658.5999756
1576.082185	657.4000244
1576.59322	654.7999878
1577.1042	654.7999878
1577.615126	657.0
1578.125998	656.4000244
1578.636816	658.0
1579.14758	657.2000122
1579.658289	655.2000122
1580.168944	656.0
1580.679545	658.0
1581.190092	657.7999878
1581.700585	658.5999756
1582.211023	657.0
1582.721407	657.0
1583.231737	659.2000122
1583.742013	657.2000122
1584.252235	655.4000244
1584.762403	657.0
1585.272516	658.0
1585.782575	656.5999756
1586.292581	658.4000244
1586.802532	657.4000244
1587.312428	654.5999756
1587.822271	658.2000122
1588.33206	657.0
1588.841794	654.7999878
1589.351474	657.7999878
1589.8611	657.2000122
1590.370672	656.2000122
1590.88019	658.4000244
1591.389654	655.7999878
1591.899064	656.7999878
1592.408419	655.2000122
