1042.452273	671.0
1043.018714	667.7999878
1043.585098	667.2000122
1044.151424	665.0
1044.717692	665.4000244
1045.283903	667.4000244
1045.850056	666.0
1046.416151	664.7999878
1046.982188	665.7999878
1047.548167	667.5999756
1048.114089	662.4000244
1048.679953	662.4000244
1049.24576	663.7999878
1049.811509	662.5999756
1050.3772	663.2000122
1050.942833	664.4000244
1051.508408	660.7999878
1052.073926	662.4000244
1052.639387	662.0
1053.204789	666.0
1053.770134	660.4000244
1054.335421	661.5999756
1054.900651	661.5999756
1055.465823	659.5999756
1056.030937	659.4000244
1056.595993	663.0
1057.160992	662.7999878
1057.725934	661.7999878
1058.290817	662.4000244
1058.855643	659.2000122
1059.420411	659.2000122
1059.985122	659.4000244
1060.549775	658.5999756
1061.114371	661.0
1061.678908	659.2000122
1062.243389	658.7999878
1062.807811	662.4000244
1063.372176	661.2000122
1063.936483	661.5999756
1064.500733	658.7999878
1065.064925	660.0
1065.62906	659.0
1066.193137	658.0
1066.757156	659.4000244
1067.321118	659.7999878
1067.885022	657.7999878
1068.448869	659.2000122
1069.012658	660.0
1069.57639	659.5999756
1070.140063	666.2000122
1070.70368	659.5999756
1071.267239	659.7999878
1071.83074	659.7999878
1072.394184	658.4000244
1072.95757	657.5999756
1073.520899	661.0
1074.08417	659.2000122
1074.647383	661.5999756
1075.21054	657.5999756
1075.773638	658.7999878
1076.336679	658.4000244
1076.899663	660.0
1077.462589	657.5999756
1078.025457	658.0
1078.588268	660.0
1079.151022	656.0
1079.713718	658.5999756
1080.276356	660.4000244
1080.838937	659.5999756
1081.401461	659.5999756
1081.963927	659.2000122
1082.526336	660.4000244
1083.088687	660.0
1083.650981	661.5999756
1084.213217	662.4000244
1084.775396	658.5999756
1085.337517	661.4000244
1085.899581	659.0
1086.461587	659.4000244
1087.023536	661.2000122
1087.585428	659.2000122
1088.147262	659.4000244
1088.709039	660.5999756
1089.270758	660.5999756
1089.83242	659.0
1090.394024	658.0
1090.955571	658.0
1091.517061	660.2000122
1092.078493	661.0
1092.639868	657.4000244
1093.201185	660.5999756
1093.762445	659.4000244
1094.323648	660.0
1094.884793	660.0
1095.445881	658.0
1096.006911	660.5999756
1096.567884	657.7999878
1097.1288	664.4000244
1097.689659	659.2000122
1098.25046	658.7999878
1098.811203	657.4000244
1099.37189	660.5999756
1099.932518	659.4000244
1100.49309	658.7999878
1101.053604	660.0
1101.614061	657.7999878
1102.174461	660.5999756
1102.734803	660.4000244
1103.295088	660.0
1103.855316	658.5999756
1104.415486	657.4000244
1104.975599	659.7999878
1105.535655	658.5999756
1106.095653	659.5999756
1106.655594	659.4000244
1107.215478	658.0
1107.775305	657.0
1108.335074	659.2000122
1108.894786	658.0
1109.45444	659.0
1110.014038	661.0
1110.573578	660.4000244
1111.133061	658.4000244
1111.692486	658.2000122
1112.251854	657.5999756
1112.811165	660.2000122
1113.370419	659.2000122
1113.929616	659.4000244
1114.488755	659.4000244
1115.047837	660.2000122
1115.606862	659.7999878
1116.16583	659.4000244
1116.72474	656.7999878
1117.283593	660.7999878
1117.842389	659.0
1118.401128	658.5999756
1118.959809	657.5999756
1119.518433	659.0
1120.077	659.7999878
1120.63551	658.4000244
1121.193963	658.5999756
1121.752358	660.2000122
1122.310697	659.2000122
1122.868978	657.5999756
1123.427202	659.7999878
1123.985368	657.0
1124.543478	658.4000244
1125.10153	660.0
1125.659526	659.7999878
1126.217464	657.4000244
1126.775345	659.4000244
1127.333168	657.5999756
1127.890935	663.7999878
1128.448644	660.0
1129.006297	659.4000244
1129.563892	660.2000122
1130.12143	658.0
1130.678911	657.5999756
1131.236335	659.5999756
1131.793701	657.4000244
1132.351011	658.7999878
1132.908263	660.5999756
1133.465458	657.4000244
1134.022597	658.2000122
1134.579678	658.4000244
1135.136702	658.5999756
1135.693669	656.2000122
1136.250578	659.5999756
1136.807431	659.4000244
1137.364227	657.5999756
1137.920965	659.7999878
1138.477647	658.4000244
1139.034271	661.2000122
1139.590839	659.4000244
1140.147349	658.7999878
1140.703802	656.7999878
1141.260198	658.4000244
1141.816537	657.7999878
1142.37282	659.4000244
1142.929045	660.0
1143.485213	658.7999878
1144.041323	659.7999878
1144.597377	657.0
1145.153374	660.7999878
1145.709314	659.2000122
1146.265197	660.5999756
1146.821023	658.7999878
1147.376792	660.5999756
1147.932503	660.2000122
1148.488158	660.5999756
1149.043756	661.7999878
1149.599297	661.5999756
1150.154781	664.4000244
1150.710207	673.0
1151.265577	667.2000122
1151.82089	661.4000244
1152.376146	660.0
1152.931345	660.7999878
1153.486487	660.4000244
1154.041572	660.2000122
1154.5966	661.4000244
1155.151571	657.7999878
1155.706485	658.5999756
1156.261342	657.2000122
1156.816142	658.5999756
1157.370885	660.2000122
1157.925572	658.4000244
1158.480201	657.5999756
1159.034774	658.5999756
1159.589289	660.0
1160.143748	660.0
1160.698149	656.5999756
1161.252494	657.2000122
1161.806782	661.0
1162.361013	658.7999878
1162.915187	658.4000244
1163.469304	657.0
1164.023364	662.5999756
1165.685204	657.7999878
1166.239036	658.2000122
1166.792812	659.4000244
1167.346531	657.5999756
1167.900193	658.4000244
1168.453798	660.7999878
1169.007347	658.0
1169.560838	655.7999878
1170.114273	659.7999878
1170.66765	658.4000244
1171.220971	657.4000244
1171.774235	660.5999756
1172.327443	659.2000122
1172.880593	659.2000122
1173.433687	657.5999756
1173.986723	657.4000244
1174.539703	660.2000122
1175.092626	661.7999878
1175.645493	663.0
1176.198302	658.4000244
1176.751055	660.2000122
1177.303751	659.5999756
1177.85639	660.7999878
1178.408972	659.5999756
1178.961498	657.2000122
1179.513966	657.5999756
1180.066378	658.4000244
1180.618733	659.0
1181.171032	656.7999878
1181.723273	660.2000122
1182.275458	660.4000244
1182.827586	659.5999756
1183.379657	658.7999878
1183.931672	661.0
1184.48363	659.4000244
1185.035531	659.5999756
1185.587375	658.5999756
1186.139162	657.4000244
1186.690893	659.5999756
1187.242567	658.7999878
1187.794184	660.2000122
1188.345745	659.0
1188.897249	658.4000244
1189.448696	657.7999878
1190.000086	658.5999756
1190.55142	658.2000122
1191.102697	659.7999878
1191.653918	660.0
1192.205081	659.4000244
1192.756188	659.7999878
1193.858232	658.7999878
1194.409169	658.5999756
1194.960049	659.2000122
1195.510872	660.7999878
1196.061639	659.2000122
1196.612349	659.4000244
1197.163003	659.2000122
1197.713599	659.5999756
1198.264139	660.4000244
1198.814623	658.7999878
1199.36505	657.7999878
1199.91542	660.7999878
1200.465734	659.7999878
1201.01599	658.2000122
1201.566191	657.2000122
1202.116334	659.4000244
1202.666421	658.4000244
1203.216452	659.2000122
1203.766425	660.5999756
1204.316343	657.5999756
1204.866203	658.5999756
1205.416007	658.7999878
1205.965754	658.0
1206.515445	660.0
1207.065079	660.2000122
1207.614657	659.4000244
1208.164177	656.5999756
1208.713642	658.5999756
1209.26305	659.0
1209.812401	656.4000244
1210.361695	659.4000244
1210.910933	659.2000122
1211.460115	659.5999756
1212.00924	660.0
1212.558308	658.0
1213.10732	657.7999878
1213.656275	658.5999756
1214.205174	659.4000244
1214.754016	658.4000244
1215.302801	658.4000244
1215.85153	657.7999878
1216.400203	658.7999878
1216.948819	660.7999878
1217.497378	659.4000244
1218.045881	660.5999756
1218.594327	658.2000122
1219.142717	658.7999878
1219.691051	662.7999878
1220.239327	660.5999756
1220.787548	658.4000244
1221.335712	660.4000244
1221.883819	659.2000122
1222.43187	658.4000244
1222.979864	658.2000122
1223.527802	658.4000244
1224.075683	658.4000244
1224.623508	658.4000244
1225.171277	656.7999878
1225.718989	659.2000122
1226.266644	658.7999878
1226.814243	657.4000244
1227.361786	659.4000244
1227.909272	658.5999756
1228.456702	659.5999756
1229.004075	660.0
1229.551392	659.0
1230.098652	660.4000244
1230.645856	656.5999756
1231.193003	661.0
1231.740094	656.5999756
1232.287129	659.4000244
1232.834107	657.2000122
1233.381029	658.2000122
1233.927894	661.5999756
1234.474703	660.5999756
1235.021455	659.5999756
1235.568151	659.5999756
1236.114791	658.4000244
1236.661374	662.2000122
1237.207901	659.5999756
1237.754372	658.4000244
1238.300786	659.7999878
1238.847144	658.5999756
1239.393445	660.5999756
1239.93969	658.5999756
1240.485879	659.7999878
1241.032011	659.4000244
1241.578087	658.5999756
1242.124106	659.5999756
1242.67007	659.7999878
1243.215976	660.0
1243.761827	658.2000122
1244.307621	660.5999756
1244.853359	658.2000122
1245.39904	660.4000244
1245.944665	659.7999878
1246.490234	659.0
1247.035746	658.4000244
1247.581203	657.7999878
1248.126602	660.2000122
1248.671946	657.5999756
1249.217233	659.2000122
1249.762464	657.5999756
1250.307638	659.7999878
1250.852757	657.0
1251.397819	660.4000244
1251.942824	660.4000244
1252.487774	659.0
1253.032667	655.7999878
1253.577503	660.7999878
1254.122284	659.2000122
1254.667008	658.2000122
1255.211676	658.2000122
1255.756288	658.2000122
1256.300843	659.0
1256.845342	657.7999878
1257.389785	660.2000122
1257.934172	657.7999878
1258.478502	661.4000244
1259.022776	658.5999756
1259.566994	659.2000122
1260.111156	666.5999756
1260.655261	658.2000122
1261.199311	657.5999756
1261.743304	658.0
1262.28724	660.5999756
1262.831121	660.7999878
1263.374945	662.4000244
1263.918713	660.7999878
1264.462425	662.0
1265.006081	661.7999878
1265.54968	662.7999878
1266.093223	662.0
1266.636711	659.2000122
1267.180141	659.4000244
1267.723516	659.5999756
1268.266835	659.4000244
1268.810097	659.0
1269.353303	660.2000122
1269.896453	660.4000244
1270.439547	659.4000244
1270.982584	658.2000122
1271.525566	660.2000122
1272.068491	659.2000122
1272.61136	657.5999756
1273.154173	658.0
1273.69693	660.2000122
1274.239631	659.5999756
1274.782275	658.4000244
1275.324864	658.7999878
1275.867396	661.4000244
1276.409872	660.5999756
1276.952292	659.2000122
1277.494656	660.4000244
1278.036964	660.2000122
1278.579215	660.2000122
1279.121411	661.7999878
1279.66355	659.4000244
1280.205634	661.0
1280.747661	657.4000244
1281.289632	660.0
1281.831547	658.0
1282.373406	660.2000122
1282.915209	660.4000244
1283.456955	662.2000122
1283.998646	662.5999756
1284.540281	670.7999878
1285.081859	693.0
1285.623381	711.0
1286.164848	688.7999878
1286.706258	667.7999878
1287.247612	661.5999756
1287.788911	661.7999878
1288.330153	659.2000122
1288.871339	661.0
1289.412469	661.0
1289.953543	658.2000122
1290.494561	660.5999756
1291.035523	659.4000244
1291.576428	661.2000122
1292.117278	659.0
1292.658072	660.0
1293.19881	661.2000122
1293.739492	659.7999878
1294.280118	660.2000122
1294.820687	658.5999756
1295.361201	660.2000122
1295.901659	659.5999756
1296.442061	660.4000244
1296.982406	658.7999878
1297.522696	660.4000244
1298.06293	658.2000122
1298.603108	658.4000244
1299.143229	658.4000244
1299.683295	658.0
1300.223305	661.2000122
1300.763259	658.4000244
1301.303157	660.2000122
1301.842999	657.4000244
1302.382785	660.4000244
1302.922515	663.5999756
1303.462189	657.4000244
1304.001807	660.0
1304.541369	657.2000122
1305.080875	659.7999878
1305.620326	661.7999878
1306.15972	661.5999756
1306.699058	659.2000122
1307.238341	660.2000122
1307.777567	660.4000244
1308.316738	659.4000244
1308.855853	656.0
1309.394912	659.2000122
1309.933915	657.7999878
1310.472862	660.7999878
1311.011753	658.7999878
1311.550588	660.4000244
1312.089367	660.4000244
1312.62809	660.0
1313.166758	659.2000122
1313.70537	660.2000122
1314.243925	660.2000122
1314.782425	658.2000122
1315.320869	659.4000244
1315.859257	662.0
1316.397589	659.7999878
1316.935866	659.4000244
1317.474086	660.5999756
1318.012251	661.2000122
1318.55036	659.7999878
1319.088413	659.7999878
1319.62641	659.2000122
1320.164351	658.5999756
1320.702236	659.4000244
1321.240066	656.5999756
1321.777839	659.4000244
1322.315557	660.7999878
1322.853219	659.2000122
1323.390826	659.7999878
1323.928376	664.7999878
1324.465871	657.7999878
1325.003309	659.4000244
1325.540692	661.2000122
1326.07802	660.4000244
1326.615291	660.4000244
1327.152506	660.0
1327.689666	659.2000122
1328.22677	659.5999756
1328.763818	659.5999756
1329.300811	662.2000122
1329.837747	660.7999878
1330.374628	658.4000244
1330.911453	657.0
1331.448222	660.4000244
1331.984936	661.0
1332.521594	660.5999756
1333.058196	658.5999756
1333.594742	659.5999756
1334.131232	659.2000122
1334.667667	662.7999878
1335.204046	660.2000122
1335.740369	658.5999756
1336.276637	659.4000244
1336.812848	661.5999756
1337.349004	660.5999756
1337.885105	657.5999756
1338.421149	659.0
1338.957138	660.0
1339.493071	660.5999756
1340.028949	662.0
1340.56477	659.7999878
1341.100536	657.2000122
1341.636246	663.4000244
1342.171901	660.0
1342.7075	662.0
1343.243043	658.4000244
1343.77853	656.7999878
1344.313962	661.5999756
1344.849338	658.0
1345.384659	659.7999878
1345.919923	660.5999756
1346.455133	659.2000122
1346.990286	661.0
1347.525384	660.4000244
1348.060426	658.4000244
1348.595412	659.4000244
1349.130343	660.4000244
1349.665218	660.4000244
1350.200037	659.5999756
1350.734801	660.5999756
1351.269509	658.2000122
1351.804162	660.2000122
1352.338758	660.2000122
1352.8733	657.5999756
1353.407785	656.5999756
1353.942215	660.7999878
1354.476589	659.2000122
1355.010908	663.5999756
1355.545171	659.7999878
1356.079379	656.7999878
1356.61353	658.0
1357.147627	661.0
1357.681667	659.0
1358.215652	659.5999756
1358.749582	661.0
1359.283456	662.7999878
1359.817274	659.5999756
1360.351037	660.0
1360.884744	660.7999878
1361.418395	657.5999756
1361.951991	659.0
1362.485531	660.2000122
1363.019016	659.4000244
1363.552445	659.5999756
1364.085819	659.4000244
1364.619137	663.2000122
1365.1524	660.4000244
1365.685607	663.2000122
1366.218758	661.0
1366.751854	661.0
1367.284894	657.2000122
1367.817879	659.0
1368.350808	659.4000244
1368.883682	663.7999878
1369.4165	658.5999756
1369.949263	661.4000244
1370.48197	661.2000122
1371.014622	662.5999756
1371.547218	659.5999756
1372.079758	659.2000122
1372.612244	661.2000122
1373.144673	662.4000244
1373.677047	662.2000122
1374.209366	659.5999756
1374.741629	662.4000244
1375.273836	659.5999756
1375.805989	660.2000122
1376.338085	658.7999878
1376.870126	661.7999878
1377.402112	661.4000244
1377.934042	662.7999878
1378.465917	660.4000244
1378.997736	659.2000122
1379.5295	658.7999878
1380.061208	660.2000122
1380.592861	660.4000244
1381.124459	662.0
1381.656	660.4000244
1382.187487	660.4000244
1382.718918	660.4000244
1383.250294	659.7999878
1383.781614	659.0
1384.312879	660.7999878
1384.844088	660.5999756
1385.375242	662.4000244
1385.90634	659.2000122
1386.437383	661.4000244
1386.968371	665.2000122
1387.499303	665.4000244
1388.03018	678.4000244
1388.561001	736.2000122
1389.091767	744.7999878
1389.622478	681.0
1390.153133	663.4000244
1390.683733	663.0
1391.214277	660.7999878
1391.744766	662.2000122
1392.2752	662.5999756
1392.805578	661.4000244
1393.335901	663.0
1393.866168	662.0
1394.396381	661.4000244
1394.926537	662.4000244
1395.456639	662.2000122
1395.986685	658.2000122
1396.516675	661.5999756
1397.046611	662.2000122
1397.576491	659.0
1398.106315	661.7999878
1398.636084	657.4000244
1399.165798	662.0
1399.695457	661.7999878
1400.22506	659.4000244
1400.754608	662.0
1401.284101	660.4000244
1401.813538	662.0
1402.34292	660.5999756
1402.872247	660.7999878
1403.401518	662.5999756
1403.930734	661.0
1404.459895	656.7999878
1404.989	663.4000244
1405.51805	661.2000122
1406.047045	660.5999756
1406.575984	661.0
1407.104869	661.7999878
1407.633697	661.5999756
1408.162471	661.5999756
1408.691189	663.5999756
1409.219852	662.7999878
1409.74846	665.2000122
1410.277013	665.4000244
1410.80551	664.2000122
1411.333952	663.7999878
1411.862339	660.5999756
1412.39067	662.7999878
1412.918946	659.2000122
1413.447167	660.7999878
1413.975333	660.0
1414.503444	660.5999756
1415.031499	660.7999878
1415.559499	666.5999756
1416.087444	660.4000244
1416.615333	660.7999878
1417.143167	660.4000244
1417.670947	660.2000122
1418.19867	660.5999756
1418.726339	660.5999756
1419.253952	659.5999756
1419.781511	659.2000122
1420.309014	663.2000122
1420.836461	658.5999756
1421.363854	662.0
1421.891191	661.2000122
1422.418474	660.0
1422.945701	659.7999878
1423.472872	659.4000244
1423.999989	659.0
1424.52705	662.0
1425.054057	660.5999756
1425.581008	660.7999878
1426.107904	661.7999878
1426.634745	663.2000122
1427.16153	661.7999878
1427.688261	661.0
1428.214936	663.5999756
1428.741556	661.7999878
1429.268121	658.2000122
1429.794631	659.7999878
1430.321085	661.2000122
1430.847485	660.5999756
1431.373829	660.2000122
1431.900118	660.0
1432.426353	659.2000122
1432.952532	661.5999756
1433.478655	662.2000122
1434.004724	663.7999878
1434.530738	661.0
1435.056696	663.0
1435.5826	662.2000122
1436.108448	661.0
1436.634241	659.2000122
1437.159979	660.2000122
1437.685662	662.0
1438.21129	659.7999878
1438.736863	660.7999878
1439.262381	658.5999756
1439.787843	660.2000122
1440.313251	661.5999756
1440.838603	659.7999878
1441.3639	659.2000122
1441.889143	660.4000244
1442.41433	664.2000122
1442.939462	659.7999878
1443.464539	660.0
1443.989561	660.5999756
1444.514528	660.5999756
1445.03944	661.5999756
1445.564297	664.2000122
1446.089099	659.0
1446.613846	661.7999878
1447.138537	661.7999878
1447.663174	659.5999756
1448.187756	662.2000122
1448.712282	658.4000244
1449.236754	660.7999878
1449.761171	662.5999756
1450.285532	660.0
1450.809839	658.4000244
1451.33409	661.7999878
1451.858287	660.4000244
1452.382428	660.7999878
1452.906515	661.0
1453.430546	660.7999878
1453.954523	659.4000244
1454.478444	659.5999756
1455.002311	662.2000122
1455.526123	661.4000244
1456.049879	661.7999878
1456.573581	661.2000122
1457.097227	660.0
1457.620819	660.2000122
1458.144356	661.0
1458.667837	662.2000122
1459.191264	662.0
1459.714636	660.5999756
1460.237952	660.5999756
1460.761214	662.2000122
1461.284421	661.5999756
1461.807573	663.0
1462.33067	661.7999878
1462.853712	658.7999878
1463.376699	663.5999756
1463.899632	660.4000244
1464.422509	660.7999878
1464.945331	659.4000244
1465.468099	659.4000244
1465.990811	659.4000244
1466.513469	660.5999756
1467.036071	662.7999878
1467.558619	660.2000122
1468.081112	661.0
1468.60355	659.7999878
1469.125933	659.7999878
1469.648261	660.2000122
1470.170534	660.7999878
1470.692752	661.2000122
1471.214916	661.5999756
1471.737024	662.4000244
1472.259078	661.2000122
1472.781077	661.7999878
1473.303021	660.0
1473.82491	661.5999756
1474.346744	662.4000244
1474.868523	662.0
1475.390248	660.7999878
1475.911917	660.5999756
1476.433532	661.4000244
1476.955092	661.4000244
1477.476597	661.5999756
1477.998047	661.4000244
1478.519442	660.2000122
1479.040783	660.7999878
1479.562068	660.4000244
1480.083299	662.0
1480.604475	662.7999878
1481.125596	660.0
1481.646663	660.4000244
1482.167674	660.0
1482.688631	660.2000122
1483.209533	662.4000244
1483.73038	661.0
1484.251172	659.2000122
1484.771909	661.2000122
1485.292592	661.2000122
1485.81322	656.7999878
1486.333793	662.7999878
1486.854311	661.7999878
1487.374775	660.7999878
1487.895183	661.5999756
1488.415537	662.5999756
1488.935836	660.0
1489.456081	661.0
1489.97627	662.2000122
1490.496405	659.4000244
1491.016485	658.7999878
1491.536511	661.4000244
1492.056481	661.7999878
1492.576397	661.4000244
1493.096258	660.7999878
1493.616064	663.0
1494.135816	662.5999756
1494.655513	659.7999878
1495.175155	661.2000122
1495.694742	660.2000122
1496.214274	659.2000122
1496.733752	660.2000122
1497.253175	660.4000244
1497.772544	659.5999756
1498.291858	662.7999878
1498.811116	664.2000122
1499.330321	660.0
1499.84947	668.4000244
1500.368565	659.4000244
1500.887605	663.2000122
1501.406591	660.4000244
1501.925521	660.0
1502.444397	662.7999878
1502.963219	660.2000122
1503.481985	660.7999878
1504.000697	662.5999756
1504.519355	660.4000244
1505.037957	659.7999878
1505.556505	661.0
1506.074999	659.5999756
1506.593437	661.7999878
1507.111821	659.4000244
1507.63015	659.0
1508.148425	660.5999756
1508.666645	659.5999756
1509.18481	661.4000244
1509.702921	660.2000122
1510.220977	660.2000122
1510.738979	667.0
1511.256925	661.7999878
1511.774817	659.5999756
1512.292655	661.7999878
1512.810438	662.5999756
1513.328166	660.4000244
1513.84584	658.5999756
1514.363459	660.0
1514.881023	657.2000122
1515.398533	660.4000244
1515.915988	661.0
1516.433389	661.0
1516.950734	661.7999878
1517.468026	661.2000122
1517.985263	659.2000122
1518.502445	661.5999756
1519.019572	660.7999878
1519.536645	663.5999756
1520.053664	661.0
1520.570628	659.4000244
1521.087537	662.0
1521.604392	662.0
1522.121192	659.7999878
1522.637937	660.4000244
1523.154628	660.7999878
1523.671265	659.4000244
1524.187847	660.0
1524.704374	663.2000122
1525.220847	661.7999878
1525.737265	661.2000122
1526.253629	659.5999756
1526.769938	660.4000244
1527.286192	657.4000244
1527.802392	661.4000244
1528.318538	659.7999878
1528.834629	660.7999878
1529.350666	659.4000244
1529.866648	660.7999878
1530.382575	660.5999756
1530.898448	659.2000122
1531.414266	660.5999756
1531.93003	659.7999878
1532.44574	660.7999878
1532.961395	660.7999878
1533.476995	660.2000122
1533.992541	660.2000122
1534.508033	658.7999878
1535.02347	662.2000122
1535.538852	659.5999756
1536.05418	657.4000244
1536.569454	661.5999756
1537.084673	660.5999756
1537.599837	663.7999878
1538.114947	658.7999878
1538.630003	660.0
1539.145004	660.7999878
1539.659951	659.5999756
1540.174843	660.2000122
1540.689681	658.4000244
1541.204465	660.4000244
1541.719194	661.5999756
1542.233868	661.2000122
1542.748488	658.4000244
1543.263054	661.5999756
1543.777565	659.7999878
1544.292022	660.2000122
1544.806424	660.2000122
1545.320772	659.7999878
1545.835066	661.2000122
1546.349305	662.2000122
1546.863489	660.4000244
1547.37762	662.7999878
1547.891696	660.7999878
1548.405717	660.2000122
1548.919684	661.4000244
1549.433597	661.2000122
1549.947455	659.7999878
1550.461259	663.2000122
1550.975009	661.2000122
1551.488704	659.7999878
1552.002345	659.0
1552.515931	661.2000122
1553.029463	658.7999878
1553.542941	660.2000122
1554.056364	659.2000122
1554.569733	659.4000244
1555.083048	660.5999756
1555.596308	662.4000244
1556.109514	660.0
1556.622665	660.0
1557.135762	660.7999878
1557.648805	662.0
1558.161794	662.2000122
1558.674728	658.5999756
1559.187608	660.0
1559.700433	662.0
1560.213205	658.2000122
1560.725921	656.4000244
1561.238584	660.5999756
1561.751192	660.7999878
1562.263746	659.7999878
1562.776246	662.7999878
1563.288691	660.2000122
1563.801082	659.0
1564.313419	659.2000122
1564.825701	659.7999878
1565.337929	662.4000244
1565.850103	660.2000122
1566.362223	659.0
1566.874288	659.5999756
1567.386299	660.5999756
1567.898256	662.0
1568.410158	658.0
1568.922007	658.7999878
1569.4338	660.7999878
1569.94554	661.2000122
1570.457226	658.2000122
1570.968857	658.5999756
1571.480434	660.7999878
1571.991956	661.4000244
1572.503425	660.0
1573.014839	660.5999756
1573.526199	659.5999756
1574.037505	661.0
1574.548756	661.0
1575.059953	659.7999878
1575.571096	659.5999756
1576.082185	661.2000122
1576.59322	660.0
1577.1042	658.5999756
1577.615126	659.4000244
1578.125998	660.4000244
1578.636816	658.7999878
1579.14758	659.0
1579.658289	657.4000244
1580.168944	660.7999878
1580.679545	658.7999878
1581.190092	657.7999878
1581.700585	658.5999756
1582.211023	663.0
1582.721407	658.7999878
1583.231737	659.5999756
1583.742013	659.4000244
1584.252235	655.7999878
1584.762403	658.4000244
1585.272516	661.4000244
1585.782575	660.0
1586.292581	659.2000122
1586.802532	659.5999756
1587.312428	659.7999878
1587.822271	660.5999756
1588.33206	657.5999756
1588.841794	657.7999878
1589.351474	658.0
1589.8611	660.2000122
1590.370672	659.2000122
1590.88019	658.0
1591.389654	658.2000122
1591.899064	657.7999878
1592.408419	658.5999756
