1042.452273	671.7999878
1043.018714	666.7999878
1043.585098	666.5999756
1044.151424	665.0
1044.717692	663.7999878
1045.283903	666.5999756
1045.850056	665.4000244
1046.416151	663.2000122
1046.982188	664.7999878
1047.548167	663.4000244
1048.114089	664.2000122
1048.679953	664.2000122
1049.24576	663.2000122
1049.811509	664.0
1050.3772	663.0
1050.942833	664.2000122
1051.508408	660.2000122
1052.073926	660.5999756
1052.639387	660.4000244
1053.204789	661.5999756
1053.770134	659.5999756
1054.335421	663.2000122
1054.900651	664.0
1055.465823	660.5999756
1056.030937	663.4000244
1056.595993	661.4000244
1057.160992	659.2000122
1057.725934	662.0
1058.290817	662.2000122
1058.855643	663.4000244
1059.420411	661.4000244
1059.985122	660.0
1060.549775	660.7999878
1061.114371	661.0
1061.678908	662.2000122
1062.243389	660.7999878
1062.807811	662.0
1063.372176	661.4000244
1063.936483	660.5999756
1064.500733	659.4000244
1065.064925	658.2000122
1065.62906	662.0
1066.193137	660.0
1066.757156	660.7999878
1067.321118	658.4000244
1067.885022	660.2000122
1068.448869	658.5999756
1069.012658	658.5999756
1069.57639	659.0
1070.140063	662.4000244
1070.70368	660.4000244
1071.267239	660.4000244
1071.83074	660.7999878
1072.394184	661.5999756
1072.95757	660.0
1073.520899	660.4000244
1074.08417	656.7999878
1074.647383	660.2000122
1075.21054	659.5999756
1075.773638	659.7999878
1076.336679	660.5999756
1076.899663	660.5999756
1077.462589	658.4000244
1078.025457	661.0
1078.588268	659.0
1079.151022	658.5999756
1079.713718	657.0
1080.276356	659.0
1080.838937	659.0
1081.401461	659.2000122
1081.963927	659.7999878
1082.526336	661.0
1083.088687	658.7999878
1083.650981	659.5999756
1084.213217	660.0
1084.775396	660.4000244
1085.337517	659.7999878
1085.899581	659.7999878
1086.461587	657.5999756
1087.023536	660.5999756
1087.585428	660.4000244
1088.147262	659.4000244
1088.709039	660.7999878
1089.270758	659.4000244
1089.83242	658.5999756
1090.394024	660.5999756
1090.955571	659.7999878
1091.517061	659.4000244
1092.078493	659.2000122
1092.639868	658.5999756
1093.201185	660.2000122
1093.762445	659.5999756
1094.323648	659.5999756
1094.884793	658.7999878
1095.445881	658.4000244
1096.006911	659.0
1096.567884	658.0
1097.1288	666.2000122
1097.689659	660.0
1098.25046	657.7999878
1098.811203	659.5999756
1099.37189	659.4000244
1099.932518	661.4000244
1100.49309	660.7999878
1101.053604	661.0
1101.614061	658.4000244
1102.174461	660.7999878
1102.734803	658.2000122
1103.295088	663.4000244
1103.855316	659.4000244
1104.415486	659.4000244
1104.975599	658.0
1105.535655	658.7999878
1106.095653	657.2000122
1106.655594	659.2000122
1107.215478	661.5999756
1107.775305	659.4000244
1108.335074	660.4000244
1108.894786	658.4000244
1109.45444	659.5999756
1110.014038	660.2000122
1110.573578	661.0
1111.133061	658.5999756
1111.692486	659.5999756
1112.251854	660.4000244
1112.811165	659.7999878
1113.370419	658.2000122
1113.929616	659.5999756
1114.488755	659.2000122
1115.047837	661.2000122
1115.606862	660.5999756
1116.16583	658.4000244
1116.72474	658.4000244
1117.283593	658.2000122
1117.842389	659.5999756
1118.401128	660.5999756
1118.959809	659.2000122
1119.518433	656.7999878
1120.077	659.5999756
1120.63551	658.0
1121.193963	659.2000122
1121.752358	659.7999878
1122.310697	661.0
1122.868978	659.4000244
1123.427202	661.4000244
1123.985368	660.2000122
1124.543478	659.4000244
1125.10153	661.5999756
1125.659526	660.0
1126.217464	658.2000122
1126.775345	660.4000244
1127.333168	659.4000244
1127.890935	659.2000122
1128.448644	658.4000244
1129.006297	659.7999878
1129.563892	660.0
1130.12143	660.5999756
1130.678911	659.5999756
1131.236335	659.0
1131.793701	659.0
1132.351011	658.4000244
1132.908263	657.2000122
1133.465458	660.2000122
1134.022597	659.0
1134.579678	659.7999878
1135.136702	659.5999756
1135.693669	659.4000244
1136.250578	661.4000244
1136.807431	661.5999756
1137.364227	659.4000244
1137.920965	658.4000244
1138.477647	660.4000244
1139.034271	660.4000244
1139.590839	659.4000244
1140.147349	663.0
1140.703802	661.0
1141.260198	659.7999878
1141.816537	659.2000122
1142.37282	664.2000122
1142.929045	664.4000244
1143.485213	667.2000122
1144.041323	664.7999878
1144.597377	662.0
1145.153374	661.2000122
1145.709314	662.5999756
1146.265197	665.7999878
1146.821023	666.0
1147.376792	676.7999878
1147.932503	673.2000122
1148.488158	667.0
1149.043756	668.2000122
1149.599297	675.5999756
1150.154781	726.2000122
1150.710207	812.4000244
1151.265577	749.4000244
1151.82089	686.0
1152.376146	667.7999878
1152.931345	661.4000244
1153.486487	662.0
1154.041572	662.5999756
1154.5966	661.7999878
1155.151571	661.5999756
1155.706485	662.0
1156.261342	660.4000244
1156.816142	658.4000244
1157.370885	662.5999756
1157.925572	658.4000244
1158.480201	661.5999756
1159.034774	659.4000244
1159.589289	659.5999756
1160.143748	660.0
1160.698149	660.2000122
1161.252494	661.2000122
1161.806782	659.5999756
1162.361013	660.2000122
1162.915187	658.0
1163.469304	661.7999878
1164.023364	659.2000122
1164.577368	660.0
1165.131314	662.2000122
1165.685204	659.4000244
1166.239036	658.4000244
1166.792812	658.7999878
1167.346531	661.0
1167.900193	662.4000244
1168.453798	659.4000244
1169.007347	659.5999756
1169.560838	660.0
1170.114273	661.5999756
1170.66765	657.7999878
1171.220971	659.5999756
1171.774235	660.0
1172.327443	659.4000244
1172.880593	660.4000244
1173.433687	657.5999756
1173.986723	659.0
1174.539703	661.2000122
1175.092626	659.4000244
1175.645493	659.5999756
1176.198302	659.7999878
1176.751055	659.7999878
1177.303751	660.0
1177.85639	659.5999756
1178.408972	657.5999756
1178.961498	658.2000122
1179.513966	659.5999756
1180.066378	660.4000244
1180.618733	662.4000244
1181.171032	659.7999878
1181.723273	656.2000122
1182.275458	659.7999878
1182.827586	659.4000244
1183.379657	659.2000122
1183.931672	661.5999756
1184.48363	658.4000244
1185.035531	660.0
1185.587375	662.0
1186.139162	657.0
1186.690893	657.7999878
1187.242567	659.2000122
1187.794184	657.7999878
1188.345745	659.2000122
1188.897249	658.4000244
1189.448696	660.0
1190.000086	660.0
1190.55142	658.7999878
1191.102697	658.4000244
1191.653918	658.4000244
1192.205081	660.0
1192.756188	661.4000244
1193.858232	657.2000122
1194.409169	660.0
1194.960049	658.4000244
1195.510872	659.2000122
1196.061639	659.5999756
1196.612349	658.4000244
1197.163003	653.5999756
1197.713599	658.5999756
1198.264139	659.0
1198.814623	659.0
1199.36505	659.0
1199.91542	660.4000244
1200.465734	660.5999756
1201.01599	658.2000122
1201.566191	658.0
1202.116334	660.7999878
1202.666421	658.2000122
1203.216452	659.0
1203.766425	657.7999878
1204.316343	657.0
1204.866203	659.4000244
1205.416007	659.4000244
1205.965754	658.5999756
1206.515445	658.7999878
1207.065079	658.0
1207.614657	658.4000244
1208.164177	657.7999878
1208.713642	658.2000122
1209.26305	655.7999878
1209.812401	660.5999756
1210.361695	660.0
1210.910933	658.5999756
1211.460115	655.4000244
1212.00924	660.7999878
1212.558308	659.5999756
1213.10732	661.2000122
1213.656275	659.7999878
1214.205174	659.0
1214.754016	661.7999878
1215.302801	659.4000244
1215.85153	658.0
1216.400203	658.5999756
1216.948819	660.2000122
1217.497378	659.2000122
1218.045881	661.0
1218.594327	661.5999756
1219.142717	660.2000122
1219.691051	661.0
1220.239327	661.0
1220.787548	660.0
1221.335712	659.4000244
1221.883819	660.0
1222.43187	658.7999878
1222.979864	658.5999756
1223.527802	658.5999756
1224.075683	660.7999878
1224.623508	658.2000122
1225.171277	658.2000122
1225.718989	659.5999756
1226.266644	660.4000244
1226.814243	663.0
1227.361786	661.0
1227.909272	659.0
1228.456702	661.7999878
1229.004075	657.2000122
1229.551392	661.0
1230.098652	661.2000122
1230.645856	663.5999756
1231.193003	660.4000244
1231.740094	661.0
1232.287129	657.5999756
1232.834107	661.0
1233.381029	660.0
1233.927894	659.4000244
1234.474703	657.0
1235.021455	658.4000244
1235.568151	659.7999878
1236.114791	659.5999756
1236.661374	656.4000244
1237.207901	662.2000122
1237.754372	661.7999878
1238.300786	664.0
1238.847144	661.5999756
1239.393445	661.5999756
1239.93969	658.5999756
1240.485879	659.4000244
1241.032011	662.4000244
1241.578087	659.2000122
1242.124106	659.4000244
1242.67007	658.5999756
1243.215976	661.0
1243.761827	662.4000244
1244.307621	658.0
1244.853359	660.7999878
1245.39904	660.7999878
1245.944665	659.2000122
1246.490234	660.5999756
1247.035746	658.5999756
1247.581203	658.0
1248.126602	660.5999756
1248.671946	660.4000244
1249.217233	661.4000244
1249.762464	660.4000244
1250.307638	661.4000244
1250.852757	661.0
1251.397819	660.0
1251.942824	660.5999756
1252.487774	659.7999878
1253.032667	659.2000122
1253.577503	658.0
1254.122284	660.4000244
1254.667008	662.2000122
1255.211676	662.0
1255.756288	659.0
1256.300843	664.2000122
1256.845342	661.2000122
1257.389785	663.0
1257.934172	659.4000244
1258.478502	659.7999878
1259.022776	664.4000244
1259.566994	664.0
1260.111156	669.5999756
1260.655261	661.2000122
1261.199311	662.4000244
1261.743304	661.2000122
1262.28724	660.4000244
1262.831121	665.4000244
1263.374945	666.5999756
1263.918713	672.4000244
1264.462425	679.2000122
1265.006081	692.7999878
1265.54968	694.2000122
1266.093223	676.7999878
1266.636711	668.5999756
1267.180141	663.7999878
1267.723516	662.0
1268.266835	662.5999756
1268.810097	661.7999878
1269.353303	661.5999756
1269.896453	658.2000122
1270.439547	660.5999756
1270.982584	659.0
1271.525566	659.7999878
1272.068491	659.5999756
1272.61136	659.7999878
1273.154173	662.5999756
1273.69693	659.0
1274.239631	659.4000244
1274.782275	663.0
1275.324864	662.2000122
1275.867396	659.5999756
1276.409872	662.0
1276.952292	661.7999878
1277.494656	663.2000122
1278.036964	661.2000122
1278.579215	660.4000244
1279.121411	663.2000122
1279.66355	661.7999878
1280.205634	659.7999878
1280.747661	664.4000244
1281.289632	664.7999878
1281.831547	666.7999878
1282.373406	669.4000244
1282.915209	673.7999878
1283.456955	687.7999878
1283.998646	714.2000122
1284.540281	805.0
1285.081859	1061.199951
1285.623381	1200.800049
1286.164848	895.7999878
1286.706258	732.2000122
1287.247612	688.2000122
1287.788911	673.2000122
1288.330153	668.5999756
1288.871339	667.0
1289.412469	666.0
1289.953543	665.7999878
1290.494561	663.0
1291.035523	662.4000244
1291.576428	661.7999878
1292.117278	659.5999756
1292.658072	661.2000122
1293.19881	659.5999756
1293.739492	663.0
1294.280118	661.7999878
1294.820687	662.0
1295.361201	660.2000122
1295.901659	661.0
1296.442061	662.2000122
1296.982406	660.2000122
1297.522696	661.4000244
1298.06293	660.7999878
1298.603108	661.2000122
1299.143229	660.0
1299.683295	661.0
1300.223305	660.5999756
1300.763259	661.0
1301.303157	661.5999756
1301.842999	658.7999878
1302.382785	661.5999756
1302.922515	660.4000244
1303.462189	659.5999756
1304.001807	659.7999878
1304.541369	660.4000244
1305.080875	660.0
1305.620326	660.2000122
1306.15972	661.0
1306.699058	659.4000244
1307.238341	661.4000244
1307.777567	663.2000122
1308.316738	659.4000244
1308.855853	656.7999878
1309.394912	658.2000122
1309.933915	658.4000244
1310.472862	660.5999756
1311.011753	659.0
1311.550588	659.0
1312.089367	662.4000244
1312.62809	657.7999878
1313.166758	659.2000122
1313.70537	659.2000122
1314.243925	661.5999756
1314.782425	660.5999756
1315.320869	658.7999878
1315.859257	659.5999756
1316.397589	659.2000122
1316.935866	661.4000244
1317.474086	661.2000122
1318.012251	661.0
1318.55036	662.0
1319.088413	658.7999878
1319.62641	660.0
1320.164351	661.5999756
1320.702236	660.2000122
1321.240066	660.2000122
1321.777839	659.5999756
1322.315557	660.5999756
1322.853219	660.2000122
1323.390826	662.0
1323.928376	666.0
1324.465871	659.7999878
1325.003309	658.5999756
1325.540692	662.5999756
1326.07802	659.2000122
1326.615291	658.4000244
1327.152506	658.4000244
1327.689666	660.4000244
1328.22677	661.2000122
1328.763818	658.7999878
1329.300811	662.5999756
1329.837747	659.2000122
1330.374628	658.7999878
1330.911453	657.0
1331.448222	661.4000244
1331.984936	658.5999756
1332.521594	661.0
1333.058196	661.4000244
1333.594742	657.7999878
1334.131232	659.5999756
1334.667667	661.0
1335.204046	659.7999878
1335.740369	659.4000244
1336.276637	659.2000122
1336.812848	659.2000122
1337.349004	658.4000244
1337.885105	659.5999756
1338.421149	659.2000122
1338.957138	659.5999756
1339.493071	659.2000122
1340.028949	661.0
1340.56477	659.5999756
1341.100536	660.4000244
1341.636246	659.2000122
1342.171901	658.7999878
1342.7075	662.0
1343.243043	659.5999756
1343.77853	661.5999756
1344.313962	662.0
1344.849338	659.7999878
1345.384659	661.7999878
1345.919923	659.5999756
1346.455133	658.7999878
1346.990286	661.0
1347.525384	658.4000244
1348.060426	659.7999878
1348.595412	658.7999878
1349.130343	659.4000244
1349.665218	660.0
1350.200037	660.5999756
1350.734801	660.0
1351.269509	659.2000122
1351.804162	659.4000244
1352.338758	659.0
1352.8733	662.4000244
1353.407785	660.0
1353.942215	660.2000122
1354.476589	661.4000244
1355.010908	661.2000122
1355.545171	662.0
1356.079379	658.5999756
1356.61353	659.5999756
1357.147627	659.0
1357.681667	659.2000122
1358.215652	659.7999878
1358.749582	662.5999756
1359.283456	660.5999756
1359.817274	659.7999878
1360.351037	661.2000122
1360.884744	659.4000244
1361.418395	661.5999756
1361.951991	662.2000122
1362.485531	660.7999878
1363.019016	661.7999878
1363.552445	660.5999756
1364.085819	663.4000244
1364.619137	662.7999878
1365.1524	662.0
1365.685607	662.0
1366.218758	662.0
1366.751854	663.0
1367.284894	661.4000244
1367.817879	662.4000244
1368.350808	659.4000244
1368.883682	660.0
1369.4165	660.7999878
1369.949263	664.2000122
1370.48197	676.4000244
1371.014622	669.5999756
1371.547218	661.2000122
1372.079758	660.4000244
1372.612244	659.5999756
1373.144673	660.4000244
1373.677047	660.2000122
1374.209366	660.7999878
1374.741629	659.0
1375.273836	660.7999878
1375.805989	662.7999878
1376.338085	660.4000244
1376.870126	662.2000122
1377.402112	663.5999756
1377.934042	661.7999878
1378.465917	661.0
1378.997736	661.5999756
1379.5295	663.4000244
1380.061208	662.0
1380.592861	660.5999756
1381.124459	661.0
1381.656	662.7999878
1382.187487	662.5999756
1382.718918	664.0
1383.250294	663.7999878
1383.781614	664.7999878
1384.312879	666.7999878
1384.844088	666.5999756
1385.375242	671.7999878
1385.90634	675.4000244
1386.437383	684.4000244
1386.968371	699.2000122
1387.499303	741.2000122
1388.03018	925.0
1388.561001	1496.800049
1389.091767	1510.0
1389.622478	907.5999756
1390.153133	724.7999878
1390.683733	689.4000244
1391.214277	675.7999878
1391.744766	668.7999878
1392.2752	671.5999756
1392.805578	664.7999878
1393.335901	664.4000244
1393.866168	666.2000122
1394.396381	662.5999756
1394.926537	663.7999878
1395.456639	660.2000122
1395.986685	662.7999878
1396.516675	661.0
1397.046611	663.2000122
1397.576491	660.5999756
1398.106315	662.0
1398.636084	661.7999878
1399.165798	662.0
1399.695457	660.5999756
1400.22506	659.5999756
1400.754608	662.4000244
1401.284101	661.5999756
1401.813538	662.4000244
1402.34292	661.5999756
1402.872247	661.5999756
1403.401518	660.7999878
1403.930734	659.5999756
1404.459895	659.7999878
1404.989	660.2000122
1405.51805	662.4000244
1406.047045	661.5999756
1406.575984	661.4000244
1407.104869	664.4000244
1407.633697	667.2000122
1408.162471	665.4000244
1408.691189	670.7999878
1409.219852	682.4000244
1409.74846	715.2000122
1410.277013	731.4000244
1410.80551	704.7999878
1411.333952	671.7999878
1411.862339	667.5999756
1412.39067	663.5999756
1412.918946	661.7999878
1413.447167	662.5999756
1413.975333	662.0
1414.503444	660.5999756
1415.031499	663.2000122
1415.559499	670.0
1416.087444	657.7999878
1416.615333	661.2000122
1417.143167	662.0
1417.670947	660.0
1418.19867	657.4000244
1418.726339	660.0
1419.253952	659.5999756
1419.781511	662.2000122
1420.309014	658.4000244
1420.836461	660.2000122
1421.363854	658.0
1421.891191	659.7999878
1422.418474	660.5999756
1422.945701	661.4000244
1423.472872	659.0
1423.999989	660.0
1424.52705	659.0
1425.054057	660.0
1425.581008	661.2000122
1426.107904	663.7999878
1426.634745	663.5999756
1427.16153	661.4000244
1427.688261	660.4000244
1428.214936	661.4000244
1428.741556	660.0
1429.268121	660.0
1429.794631	659.2000122
1430.321085	659.4000244
1430.847485	661.2000122
1431.373829	660.4000244
1431.900118	658.4000244
1432.426353	657.7999878
1432.952532	658.7999878
1433.478655	658.2000122
1434.004724	659.0
1434.530738	659.4000244
1435.056696	659.7999878
1435.5826	659.5999756
1436.108448	659.2000122
1436.634241	659.0
1437.159979	659.5999756
1437.685662	659.5999756
1438.21129	657.4000244
1438.736863	659.4000244
1439.262381	661.2000122
1439.787843	657.5999756
1440.313251	659.4000244
1440.838603	656.4000244
1441.3639	658.4000244
1441.889143	656.7999878
1442.41433	660.2000122
1442.939462	659.2000122
1443.464539	658.2000122
1443.989561	659.7999878
1444.514528	655.0
1445.03944	656.2000122
1445.564297	657.2000122
1446.089099	656.0
1446.613846	661.2000122
1447.138537	660.5999756
1447.663174	658.5999756
1448.187756	659.0
1448.712282	657.0
1449.236754	656.5999756
1449.761171	659.0
1450.285532	658.7999878
1450.809839	656.0
1451.33409	659.0
1451.858287	657.4000244
1452.382428	658.7999878
1452.906515	658.5999756
1453.430546	656.4000244
1453.954523	658.5999756
1454.478444	658.5999756
1455.002311	654.7999878
1455.526123	657.7999878
1456.049879	657.5999756
1456.573581	657.0
1457.097227	659.4000244
1457.620819	656.7999878
1458.144356	659.5999756
1458.667837	660.7999878
1459.191264	656.5999756
1459.714636	657.4000244
1460.237952	659.0
1460.761214	658.2000122
1461.284421	661.7999878
1461.807573	659.2000122
1462.33067	658.2000122
1462.853712	660.7999878
1463.376699	659.2000122
1463.899632	658.7999878
1464.422509	655.4000244
1464.945331	658.0
1465.468099	659.0
1465.990811	658.7999878
1466.513469	658.0
1467.036071	656.7999878
1467.558619	656.0
1468.081112	658.7999878
1468.60355	659.2000122
1469.125933	660.2000122
1469.648261	656.5999756
1470.170534	659.2000122
1470.692752	658.5999756
1471.214916	659.5999756
1471.737024	657.2000122
1472.259078	660.0
1472.781077	655.4000244
1473.303021	656.7999878
1473.82491	659.5999756
1474.346744	657.5999756
1474.868523	658.5999756
1475.390248	657.2000122
1475.911917	659.5999756
1476.433532	657.7999878
1476.955092	657.5999756
1477.476597	658.4000244
1477.998047	657.0
1478.519442	659.0
1479.040783	655.2000122
1479.562068	660.2000122
1480.083299	656.7999878
1480.604475	658.4000244
1481.125596	660.4000244
1481.646663	658.0
1482.167674	658.2000122
1482.688631	657.4000244
1483.209533	658.4000244
1483.73038	656.0
1484.251172	658.4000244
1484.771909	656.0
1485.292592	656.5999756
1485.81322	659.4000244
1486.333793	657.5999756
1486.854311	661.4000244
1487.374775	658.0
1487.895183	656.2000122
1488.415537	657.4000244
1488.935836	658.7999878
1489.456081	658.7999878
1489.97627	656.5999756
1490.496405	659.0
1491.016485	656.2000122
1491.536511	657.4000244
1492.056481	655.0
1492.576397	658.0
1493.096258	659.2000122
1493.616064	658.2000122
1494.135816	658.2000122
1494.655513	657.5999756
1495.175155	658.5999756
1495.694742	657.4000244
1496.214274	655.7999878
1496.733752	659.5999756
1497.253175	655.5999756
1497.772544	656.7999878
1498.291858	655.4000244
1498.811116	656.0
1499.330321	657.5999756
1499.84947	663.4000244
1500.368565	656.7999878
1500.887605	658.7999878
1501.406591	658.5999756
1501.925521	658.0
1502.444397	658.2000122
1502.963219	659.5999756
1503.481985	655.2000122
1504.000697	658.0
1504.519355	656.7999878
1505.037957	654.4000244
1505.556505	657.7999878
1506.074999	658.2000122
1506.593437	658.4000244
1507.111821	656.7999878
1507.63015	656.2000122
1508.148425	658.7999878
1508.666645	659.0
1509.18481	656.0
1509.702921	656.2000122
1510.220977	655.4000244
1510.738979	663.5999756
1511.256925	657.0
1511.774817	659.0
1512.292655	659.7999878
1512.810438	656.5999756
1513.328166	656.4000244
1513.84584	658.4000244
1514.363459	657.0
1514.881023	656.7999878
1515.398533	656.7999878
1515.915988	657.4000244
1516.433389	655.7999878
1516.950734	654.4000244
1517.468026	657.4000244
1517.985263	655.5999756
1518.502445	657.7999878
1519.019572	655.7999878
1519.536645	656.5999756
1520.053664	658.0
1520.570628	656.0
1521.087537	658.5999756
1521.604392	658.5999756
1522.121192	658.0
1522.637937	655.2000122
1523.154628	656.0
1523.671265	657.7999878
1524.187847	658.0
1524.704374	660.2000122
1525.220847	656.7999878
1525.737265	657.2000122
1526.253629	659.2000122
1526.769938	655.4000244
1527.286192	658.2000122
1527.802392	657.2000122
1528.318538	658.0
1528.834629	657.0
1529.350666	658.0
1529.866648	657.0
1530.382575	657.5999756
1530.898448	656.5999756
1531.414266	657.2000122
1531.93003	656.5999756
1532.44574	657.7999878
1532.961395	658.2000122
1533.476995	658.5999756
1533.992541	658.5999756
1534.508033	656.7999878
1535.02347	657.5999756
1535.538852	656.7999878
1536.05418	658.5999756
1536.569454	659.0
1537.084673	657.2000122
1537.599837	656.7999878
1538.114947	656.5999756
1538.630003	656.0
1539.145004	657.0
1539.659951	659.2000122
1540.174843	655.2000122
1540.689681	657.4000244
1541.204465	656.5999756
1541.719194	655.2000122
1542.233868	657.2000122
1542.748488	655.7999878
1543.263054	658.2000122
1543.777565	656.4000244
1544.292022	654.0
1544.806424	657.2000122
1545.320772	657.5999756
1545.835066	657.2000122
1546.349305	655.0
1546.863489	657.2000122
1547.37762	656.5999756
1547.891696	657.0
1548.405717	656.7999878
1548.919684	658.0
1549.433597	656.5999756
1549.947455	658.4000244
1550.461259	654.4000244
1550.975009	658.0
1551.488704	656.2000122
1552.002345	655.5999756
1552.515931	658.2000122
1553.029463	657.7999878
1553.542941	655.7999878
1554.056364	657.0
1554.569733	653.5999756
1555.083048	657.0
1555.596308	655.2000122
1556.109514	654.7999878
1556.622665	656.0
1557.135762	657.2000122
1557.648805	657.4000244
1558.161794	656.5999756
1558.674728	657.0
1559.187608	657.7999878
1559.700433	656.2000122
1560.213205	656.7999878
1560.725921	656.0
1561.238584	656.5999756
1561.751192	655.7999878
1562.263746	658.0
1562.776246	657.2000122
1563.288691	657.0
1563.801082	654.7999878
1564.313419	656.4000244
1564.825701	657.2000122
1565.337929	657.7999878
1565.850103	656.5999756
1566.362223	658.5999756
1566.874288	656.0
1567.386299	656.4000244
1567.898256	656.4000244
1568.410158	656.4000244
1568.922007	658.7999878
1569.4338	657.2000122
1569.94554	656.4000244
1570.457226	656.2000122
1570.968857	656.5999756
1571.480434	656.0
1571.991956	657.0
1572.503425	657.5999756
1573.014839	658.2000122
1573.526199	656.4000244
1574.037505	656.4000244
1574.548756	656.7999878
1575.059953	655.5999756
1575.571096	657.0
1576.082185	657.7999878
1576.59322	656.4000244
1577.1042	657.0
1577.615126	655.7999878
1578.125998	654.7999878
1578.636816	656.0
1579.14758	657.0
1579.658289	656.0
1580.168944	656.5999756
1580.679545	656.4000244
1581.190092	655.0
1581.700585	655.0
1582.211023	657.4000244
1582.721407	655.2000122
1583.231737	656.0
1583.742013	656.5999756
1584.252235	656.2000122
1584.762403	656.5999756
1585.272516	654.7999878
1585.782575	655.2000122
1586.292581	658.4000244
1586.802532	656.5999756
1587.312428	655.4000244
1587.822271	659.5999756
1588.33206	655.0
1588.841794	655.0
1589.351474	654.7999878
1589.8611	657.0
1590.370672	654.4000244
1590.88019	658.0
1591.389654	658.0
1591.899064	656.0
1592.408419	655.0
