1042.452273	668.7999878
1043.018714	663.7999878
1043.585098	670.5999756
1044.151424	670.0
1044.717692	671.7999878
1045.283903	663.2000122
1045.850056	668.2000122
1046.416151	666.7999878
1046.982188	665.5999756
1047.548167	664.2000122
1048.114089	666.2000122
1048.679953	662.4000244
1049.24576	668.2000122
1049.811509	663.7999878
1050.3772	669.2000122
1050.942833	664.2000122
1051.508408	661.4000244
1052.073926	664.4000244
1052.639387	664.2000122
1053.204789	666.2000122
1053.770134	664.7999878
1054.335421	664.7999878
1054.900651	663.4000244
1055.465823	661.5999756
1056.030937	663.4000244
1056.595993	663.4000244
1057.160992	663.0
1057.725934	659.4000244
1058.290817	664.5999756
1058.855643	664.0
1059.420411	664.2000122
1059.985122	661.5999756
1060.549775	663.4000244
1061.114371	662.5999756
1061.678908	660.5999756
1062.243389	661.7999878
1062.807811	665.5999756
1063.372176	662.4000244
1063.936483	660.4000244
1064.500733	664.0
1065.064925	663.0
1065.62906	665.2000122
1066.193137	661.2000122
1066.757156	660.4000244
1067.321118	658.7999878
1067.885022	660.5999756
1068.448869	661.2000122
1069.012658	662.5999756
1069.57639	661.2000122
1070.140063	666.4000244
1070.70368	660.7999878
1071.267239	660.7999878
1071.83074	661.7999878
1072.394184	660.5999756
1072.95757	660.0
1073.520899	657.5999756
1074.08417	664.0
1074.647383	661.0
1075.21054	662.0
1075.773638	659.7999878
1076.336679	662.5999756
1076.899663	662.2000122
1077.462589	659.2000122
1078.025457	659.5999756
1078.588268	661.5999756
1079.151022	660.7999878
1079.713718	661.4000244
1080.276356	660.5999756
1080.838937	659.7999878
1081.401461	662.7999878
1081.963927	659.5999756
1082.526336	664.7999878
1083.088687	659.4000244
1083.650981	659.5999756
1084.213217	659.7999878
1084.775396	659.0
1085.337517	662.2000122
1085.899581	658.2000122
1086.461587	659.5999756
1087.023536	662.7999878
1087.585428	660.5999756
1088.147262	661.0
1088.709039	661.7999878
1089.270758	658.0
1089.83242	660.0
1090.394024	660.2000122
1090.955571	661.4000244
1091.517061	660.7999878
1092.078493	660.5999756
1092.639868	662.0
1093.201185	660.5999756
1093.762445	662.5999756
1094.323648	661.7999878
1094.884793	661.5999756
1095.445881	661.4000244
1096.006911	660.2000122
1096.567884	659.0
1097.1288	662.2000122
1097.689659	659.0
1098.25046	660.2000122
1098.811203	662.7999878
1099.37189	660.2000122
1099.932518	659.7999878
1100.49309	659.5999756
1101.053604	661.0
1101.614061	660.2000122
1102.174461	660.4000244
1102.734803	662.7999878
1103.295088	661.2000122
1103.855316	661.7999878
1104.415486	659.0
1104.975599	660.7999878
1105.535655	660.7999878
1106.095653	659.4000244
1106.655594	660.0
1107.215478	663.0
1107.775305	659.4000244
1108.335074	661.2000122
1108.894786	662.7999878
1109.45444	662.2000122
1110.014038	661.7999878
1110.573578	660.5999756
1111.133061	662.2000122
1111.692486	660.0
1112.251854	661.2000122
1112.811165	661.4000244
1113.370419	661.4000244
1113.929616	658.5999756
1114.488755	662.0
1115.047837	660.7999878
1115.606862	660.2000122
1116.16583	660.4000244
1116.72474	658.5999756
1117.283593	661.2000122
1117.842389	660.5999756
1118.401128	658.7999878
1118.959809	660.7999878
1119.518433	660.5999756
1120.077	660.2000122
1120.63551	662.0
1121.193963	657.5999756
1121.752358	659.7999878
1122.310697	660.5999756
1122.868978	660.7999878
1123.427202	661.0
1123.985368	662.0
1124.543478	661.2000122
1125.10153	659.5999756
1125.659526	661.7999878
1126.217464	662.2000122
1126.775345	660.4000244
1127.333168	661.5999756
1127.890935	661.2000122
1128.448644	661.7999878
1129.006297	662.7999878
1129.563892	662.4000244
1130.12143	664.4000244
1130.678911	662.0
1131.236335	662.5999756
1131.793701	658.2000122
1132.351011	661.5999756
1132.908263	660.0
1133.465458	661.7999878
1134.022597	660.7999878
1134.579678	660.4000244
1135.136702	659.5999756
1135.693669	658.5999756
1136.250578	658.5999756
1136.807431	659.0
1137.364227	658.2000122
1137.920965	659.2000122
1138.477647	661.0
1139.034271	660.0
1139.590839	658.4000244
1140.147349	658.0
1140.703802	660.2000122
1141.260198	657.5999756
1141.816537	660.2000122
1142.37282	659.4000244
1142.929045	659.0
1143.485213	661.0
1144.041323	661.2000122
1144.597377	657.7999878
1145.153374	660.2000122
1145.709314	662.0
1146.265197	660.2000122
1146.821023	663.5999756
1147.376792	663.5999756
1147.932503	662.7999878
1148.488158	662.4000244
1149.043756	663.2000122
1149.599297	664.5999756
1150.154781	672.5999756
1150.710207	677.0
1151.265577	669.5999756
1151.82089	664.7999878
1152.376146	659.5999756
1152.931345	660.0
1153.486487	660.4000244
1154.041572	658.2000122
1154.5966	660.4000244
1155.151571	661.0
1155.706485	659.5999756
1156.261342	659.0
1156.816142	658.5999756
1157.370885	659.7999878
1157.925572	657.7999878
1158.480201	660.4000244
1159.034774	659.5999756
1159.589289	659.7999878
1160.143748	662.2000122
1160.698149	661.0
1161.252494	661.0
1161.806782	657.5999756
1162.361013	659.0
1162.915187	661.2000122
1163.469304	660.7999878
1164.023364	660.2000122
1164.577368	658.4000244
1165.131314	658.5999756
1165.685204	658.7999878
1166.239036	659.5999756
1166.792812	658.7999878
1167.346531	658.7999878
1167.900193	663.4000244
1168.453798	659.5999756
1169.007347	659.7999878
1169.560838	660.5999756
1170.114273	659.5999756
1170.66765	661.4000244
1171.220971	659.7999878
1171.774235	658.7999878
1172.327443	657.4000244
1172.880593	659.4000244
1173.433687	659.5999756
1173.986723	660.4000244
1174.539703	659.7999878
1175.092626	658.5999756
1175.645493	662.0
1176.198302	660.2000122
1176.751055	662.0
1177.303751	658.4000244
1177.85639	659.5999756
1178.408972	660.4000244
1178.961498	657.2000122
1179.513966	659.7999878
1180.066378	660.0
1180.618733	660.2000122
1181.171032	659.0
1181.723273	657.0
1182.275458	659.7999878
1182.827586	658.0
1183.379657	659.4000244
1183.931672	660.2000122
1184.48363	661.0
1185.035531	659.5999756
1185.587375	659.0
1186.139162	659.0
1186.690893	657.5999756
1187.242567	659.4000244
1187.794184	660.0
1188.345745	660.4000244
1188.897249	662.2000122
1189.448696	662.4000244
1190.000086	660.4000244
1190.55142	660.4000244
1191.102697	661.2000122
1191.653918	660.7999878
1192.205081	660.0
1192.756188	661.5999756
1193.858232	658.0
1194.409169	660.0
1194.960049	661.5999756
1195.510872	660.0
1196.061639	661.0
1196.612349	662.5999756
1197.163003	659.0
1197.713599	659.2000122
1198.264139	662.4000244
1198.814623	656.7999878
1199.36505	659.0
1199.91542	660.4000244
1200.465734	658.7999878
1201.01599	659.0
1201.566191	659.0
1202.116334	657.7999878
1202.666421	660.2000122
1203.216452	661.0
1203.766425	660.2000122
1204.316343	657.2000122
1204.866203	661.4000244
1205.416007	660.0
1205.965754	657.0
1206.515445	659.2000122
1207.065079	660.5999756
1207.614657	659.5999756
1208.164177	657.7999878
1208.713642	660.5999756
1209.26305	660.0
1209.812401	660.2000122
1210.361695	660.4000244
1210.910933	659.7999878
1211.460115	660.7999878
1212.00924	660.2000122
1212.558308	658.2000122
1213.10732	663.2000122
1213.656275	659.4000244
1214.205174	661.4000244
1214.754016	659.7999878
1215.302801	662.4000244
1215.85153	658.0
1216.400203	658.5999756
1216.948819	660.2000122
1217.497378	660.2000122
1218.045881	659.2000122
1218.594327	662.2000122
1219.142717	663.2000122
1219.691051	660.0
1220.239327	662.7999878
1220.787548	660.5999756
1221.335712	660.7999878
1221.883819	662.7999878
1222.43187	661.2000122
1222.979864	659.2000122
1223.527802	661.4000244
1224.075683	662.2000122
1224.623508	661.7999878
1225.171277	658.5999756
1225.718989	661.5999756
1226.266644	662.0
1226.814243	657.2000122
1227.361786	660.5999756
1227.909272	658.5999756
1228.456702	662.4000244
1229.004075	659.7999878
1229.551392	660.2000122
1230.098652	659.4000244
1230.645856	663.0
1231.193003	661.5999756
1231.740094	664.0
1232.287129	660.2000122
1232.834107	660.2000122
1233.381029	658.7999878
1233.927894	659.2000122
1234.474703	661.0
1235.021455	661.4000244
1235.568151	658.5999756
1236.114791	660.7999878
1236.661374	661.7999878
1237.207901	659.0
1237.754372	660.5999756
1238.300786	657.2000122
1238.847144	659.7999878
1239.393445	660.7999878
1239.93969	661.7999878
1240.485879	659.2000122
1241.032011	660.4000244
1241.578087	660.7999878
1242.124106	660.7999878
1242.67007	659.7999878
1243.215976	661.4000244
1243.761827	663.0
1244.307621	661.2000122
1244.853359	662.5999756
1245.39904	661.0
1245.944665	661.2000122
1246.490234	662.5999756
1247.035746	664.2000122
1247.581203	661.7999878
1248.126602	661.4000244
1248.671946	662.4000244
1249.217233	662.0
1249.762464	662.2000122
1250.307638	660.7999878
1250.852757	661.7999878
1251.397819	660.5999756
1251.942824	662.5999756
1252.487774	662.2000122
1253.032667	662.7999878
1253.577503	660.7999878
1254.122284	659.7999878
1254.667008	659.5999756
1255.211676	662.2000122
1255.756288	664.5999756
1256.300843	663.0
1256.845342	660.2000122
1257.389785	662.0
1257.934172	662.2000122
1258.478502	663.4000244
1259.022776	667.0
1259.566994	663.4000244
1260.111156	670.5999756
1260.655261	662.4000244
1261.199311	663.2000122
1261.743304	664.5999756
1262.28724	663.5999756
1262.831121	668.2000122
1263.374945	673.2000122
1263.918713	675.7999878
1264.462425	688.7999878
1265.006081	696.5999756
1265.54968	689.0
1266.093223	675.2000122
1266.636711	667.7999878
1267.180141	665.0
1267.723516	663.5999756
1268.266835	665.4000244
1268.810097	664.4000244
1269.353303	663.7999878
1269.896453	663.4000244
1270.439547	662.5999756
1270.982584	663.0
1271.525566	661.0
1272.068491	663.5999756
1272.61136	664.4000244
1273.154173	664.2000122
1273.69693	664.5999756
1274.239631	662.0
1274.782275	660.2000122
1275.324864	663.7999878
1275.867396	664.7999878
1276.409872	663.0
1276.952292	662.0
1277.494656	662.7999878
1278.036964	663.5999756
1278.579215	663.0
1279.121411	663.2000122
1279.66355	665.5999756
1280.205634	669.4000244
1280.747661	668.4000244
1281.289632	671.4000244
1281.831547	669.4000244
1282.373406	675.4000244
1282.915209	695.0
1283.456955	722.2000122
1283.998646	788.5999756
1284.540281	970.0
1285.081859	1171.800049
1285.623381	1050.199951
1286.164848	799.4000244
1286.706258	711.7999878
1287.247612	688.5999756
1287.788911	674.7999878
1288.330153	671.7999878
1288.871339	669.5999756
1289.412469	670.2000122
1289.953543	666.2000122
1290.494561	665.7999878
1291.035523	666.0
1291.576428	664.2000122
1292.117278	664.0
1292.658072	662.4000244
1293.19881	662.0
1293.739492	663.4000244
1294.280118	664.0
1294.820687	663.7999878
1295.361201	663.0
1295.901659	661.7999878
1296.442061	663.4000244
1296.982406	662.4000244
1297.522696	662.5999756
1298.06293	663.0
1298.603108	664.7999878
1299.143229	661.5999756
1299.683295	662.5999756
1300.223305	661.7999878
1300.763259	661.5999756
1301.303157	661.5999756
1301.842999	660.4000244
1302.382785	660.0
1302.922515	663.5999756
1303.462189	660.5999756
1304.001807	661.2000122
1304.541369	661.7999878
1305.080875	662.2000122
1305.620326	662.4000244
1306.15972	659.7999878
1306.699058	662.0
1307.238341	663.5999756
1307.777567	663.2000122
1308.316738	660.7999878
1308.855853	659.0
1309.394912	663.2000122
1309.933915	663.2000122
1310.472862	661.7999878
1311.011753	663.5999756
1311.550588	661.2000122
1312.089367	661.4000244
1312.62809	662.4000244
1313.166758	660.7999878
1313.70537	661.5999756
1314.243925	662.2000122
1314.782425	662.2000122
1315.320869	663.7999878
1315.859257	661.5999756
1316.397589	661.0
1316.935866	662.4000244
1317.474086	660.0
1318.012251	661.2000122
1318.55036	661.5999756
1319.088413	662.0
1319.62641	659.2000122
1320.164351	662.0
1320.702236	660.4000244
1321.240066	662.4000244
1321.777839	660.2000122
1322.315557	660.4000244
1322.853219	661.0
1323.390826	660.4000244
1323.928376	664.4000244
1324.465871	661.5999756
1325.003309	661.0
1325.540692	662.2000122
1326.07802	659.4000244
1326.615291	661.4000244
1327.152506	662.0
1327.689666	662.7999878
1328.22677	661.7999878
1328.763818	660.7999878
1329.300811	662.4000244
1329.837747	660.2000122
1330.374628	660.0
1330.911453	661.5999756
1331.448222	660.7999878
1331.984936	661.0
1332.521594	659.0
1333.058196	661.7999878
1333.594742	662.2000122
1334.131232	660.0
1334.667667	664.0
1335.204046	661.5999756
1335.740369	662.2000122
1336.276637	661.5999756
1336.812848	660.7999878
1337.349004	660.7999878
1337.885105	662.7999878
1338.421149	661.2000122
1338.957138	662.0
1339.493071	661.0
1340.028949	661.4000244
1340.56477	662.2000122
1341.100536	660.2000122
1341.636246	662.0
1342.171901	660.4000244
1342.7075	660.5999756
1343.243043	662.4000244
1343.77853	662.4000244
1344.313962	663.0
1344.849338	660.4000244
1345.384659	659.0
1345.919923	661.0
1346.455133	660.0
1346.990286	660.0
1347.525384	662.0
1348.060426	660.7999878
1348.595412	661.5999756
1349.130343	659.7999878
1349.665218	660.4000244
1350.200037	662.2000122
1350.734801	660.5999756
1351.269509	661.4000244
1351.804162	661.0
1352.338758	661.2000122
1352.8733	660.0
1353.407785	662.0
1353.942215	659.4000244
1354.476589	659.5999756
1355.010908	665.5999756
1355.545171	662.2000122
1356.079379	661.4000244
1356.61353	663.5999756
1357.147627	659.7999878
1357.681667	659.7999878
1358.215652	660.5999756
1358.749582	663.4000244
1359.283456	662.2000122
1359.817274	662.5999756
1360.351037	664.7999878
1360.884744	661.4000244
1361.418395	661.7999878
1361.951991	663.4000244
1362.485531	663.5999756
1363.019016	664.0
1363.552445	663.5999756
1364.085819	662.2000122
1364.619137	661.4000244
1365.1524	661.4000244
1365.685607	664.2000122
1366.218758	663.5999756
1366.751854	664.2000122
1367.284894	661.4000244
1367.817879	662.7999878
1368.350808	663.2000122
1368.883682	661.5999756
1369.4165	664.0
1369.949263	672.7999878
1370.48197	678.5999756
1371.014622	668.7999878
1371.547218	661.5999756
1372.079758	665.2000122
1372.612244	663.5999756
1373.144673	665.7999878
1373.677047	663.5999756
1374.209366	662.0
1374.741629	663.0
1375.273836	661.2000122
1375.805989	664.2000122
1376.338085	663.2000122
1376.870126	663.5999756
1377.402112	663.5999756
1377.934042	664.4000244
1378.465917	665.5999756
1378.997736	664.4000244
1379.5295	664.4000244
1380.061208	662.7999878
1380.592861	667.2000122
1381.124459	665.7999878
1381.656	663.0
1382.187487	664.5999756
1382.718918	667.5999756
1383.250294	667.2000122
1383.781614	671.4000244
1384.312879	667.0
1384.844088	674.5999756
1385.375242	677.2000122
1385.90634	686.2000122
1386.437383	704.4000244
1386.968371	726.0
1387.499303	826.0
1388.03018	1139.599976
1388.561001	1614.400024
1389.091767	1311.400024
1389.622478	857.2000122
1390.153133	729.0
1390.683733	696.0
1391.214277	679.2000122
1391.744766	674.5999756
1392.2752	670.7999878
1392.805578	667.5999756
1393.335901	668.5999756
1393.866168	669.5999756
1394.396381	667.2000122
1394.926537	668.0
1395.456639	663.5999756
1395.986685	663.7999878
1396.516675	664.5999756
1397.046611	664.5999756
1397.576491	663.4000244
1398.106315	665.2000122
1398.636084	662.7999878
1399.165798	663.4000244
1399.695457	663.4000244
1400.22506	664.5999756
1400.754608	663.2000122
1401.284101	662.5999756
1401.813538	663.7999878
1402.34292	664.4000244
1402.872247	660.5999756
1403.401518	663.2000122
1403.930734	663.0
1404.459895	662.2000122
1404.989	664.0
1405.51805	663.7999878
1406.047045	664.7999878
1406.575984	664.2000122
1407.104869	668.5999756
1407.633697	668.5999756
1408.162471	672.7999878
1408.691189	679.0
1409.219852	694.4000244
1409.74846	713.5999756
1410.277013	720.5999756
1410.80551	695.0
1411.333952	677.4000244
1411.862339	671.5999756
1412.39067	668.0
1412.918946	664.2000122
1413.447167	662.7999878
1413.975333	663.7999878
1414.503444	662.0
1415.031499	665.0
1415.559499	672.4000244
1416.087444	662.2000122
1416.615333	663.0
1417.143167	659.2000122
1417.670947	659.5999756
1418.19867	661.0
1418.726339	660.7999878
1419.253952	661.5999756
1419.781511	661.0
1420.309014	661.5999756
1420.836461	660.2000122
1421.363854	661.0
1421.891191	661.4000244
1422.418474	662.5999756
1422.945701	662.0
1423.472872	661.7999878
1423.999989	661.5999756
1424.52705	661.2000122
1425.054057	661.5999756
1425.581008	660.7999878
1426.107904	665.0
1426.634745	661.5999756
1427.16153	663.0
1427.688261	661.7999878
1428.214936	658.4000244
1428.741556	660.7999878
1429.268121	658.7999878
1429.794631	660.2000122
1430.321085	661.4000244
1430.847485	659.7999878
1431.373829	663.0
1431.900118	661.0
1432.426353	660.0
1432.952532	660.0
1433.478655	658.7999878
1434.004724	659.0
1434.530738	661.0
1435.056696	658.7999878
1435.5826	658.5999756
1436.108448	657.5999756
1436.634241	657.5999756
1437.159979	661.5999756
1437.685662	659.7999878
1438.21129	661.0
1438.736863	661.5999756
1439.262381	661.0
1439.787843	661.5999756
1440.313251	659.7999878
1440.838603	660.4000244
1441.3639	659.2000122
1441.889143	660.0
1442.41433	661.4000244
1442.939462	659.5999756
1443.464539	660.2000122
1443.989561	662.0
1444.514528	659.7999878
1445.03944	660.5999756
1445.564297	657.5999756
1446.089099	662.0
1446.613846	660.2000122
1447.138537	658.0
1447.663174	660.5999756
1448.187756	661.2000122
1448.712282	659.4000244
1449.236754	660.4000244
1449.761171	658.5999756
1450.285532	657.7999878
1450.809839	659.7999878
1451.33409	661.0
1451.858287	658.4000244
1452.382428	658.7999878
1452.906515	658.5999756
1453.430546	658.4000244
1453.954523	658.7999878
1454.478444	655.7999878
1455.002311	657.4000244
1455.526123	656.2000122
1456.049879	657.0
1456.573581	657.2000122
1457.097227	658.4000244
1457.620819	659.0
1458.144356	658.0
1458.667837	658.0
1459.191264	657.4000244
1459.714636	657.0
1460.237952	660.7999878
1460.761214	657.5999756
1461.284421	656.2000122
1461.807573	657.7999878
1462.33067	660.0
1462.853712	658.7999878
1463.376699	660.2000122
1463.899632	659.0
1464.422509	659.0
1464.945331	658.7999878
1465.468099	655.5999756
1465.990811	660.2000122
1466.513469	657.7999878
1467.036071	657.7999878
1467.558619	661.4000244
1468.081112	659.0
1468.60355	658.7999878
1469.125933	657.5999756
1469.648261	656.5999756
1470.170534	659.5999756
1470.692752	658.7999878
1471.214916	657.7999878
1471.737024	660.5999756
1472.259078	658.4000244
1472.781077	657.2000122
1473.303021	660.4000244
1473.82491	658.5999756
1474.346744	660.4000244
1474.868523	658.2000122
1475.390248	658.4000244
1475.911917	656.7999878
1476.433532	659.2000122
1476.955092	658.5999756
1477.476597	660.0
1477.998047	659.0
1478.519442	658.4000244
1479.040783	656.7999878
1479.562068	658.7999878
1480.083299	656.4000244
1480.604475	657.7999878
1481.125596	657.2000122
1481.646663	659.0
1482.167674	659.7999878
1482.688631	657.4000244
1483.209533	657.7999878
1483.73038	657.7999878
1484.251172	659.4000244
1484.771909	657.0
1485.292592	656.2000122
1485.81322	659.5999756
1486.333793	659.4000244
1486.854311	656.7999878
1487.374775	657.4000244
1487.895183	661.5999756
1488.415537	658.0
1488.935836	659.5999756
1489.456081	657.0
1489.97627	656.0
1490.496405	655.5999756
1491.016485	656.0
1491.536511	657.7999878
1492.056481	657.5999756
1492.576397	657.5999756
1493.096258	658.5999756
1493.616064	658.5999756
1494.135816	658.5999756
1494.655513	658.2000122
1495.175155	658.4000244
1495.694742	657.2000122
1496.214274	657.5999756
1496.733752	657.7999878
1497.253175	658.2000122
1497.772544	656.0
1498.291858	659.2000122
1498.811116	660.2000122
1499.330321	659.0
1499.84947	665.4000244
1500.368565	659.7999878
1500.887605	659.4000244
1501.406591	657.4000244
1501.925521	658.5999756
1502.444397	657.7999878
1502.963219	658.0
1503.481985	657.4000244
1504.000697	657.4000244
1504.519355	658.7999878
1505.037957	658.4000244
1505.556505	658.4000244
1506.074999	657.7999878
1506.593437	656.7999878
1507.111821	657.5999756
1507.63015	658.7999878
1508.148425	658.4000244
1508.666645	657.4000244
1509.18481	657.5999756
1509.702921	659.2000122
1510.220977	660.2000122
1510.738979	664.4000244
1511.256925	658.7999878
1511.774817	657.5999756
1512.292655	656.2000122
1512.810438	657.4000244
1513.328166	660.0
1513.84584	658.2000122
1514.363459	659.0
1514.881023	657.5999756
1515.398533	658.5999756
1515.915988	656.4000244
1516.433389	660.2000122
1516.950734	657.0
1517.468026	655.4000244
1517.985263	658.0
1518.502445	656.7999878
1519.019572	657.7999878
1519.536645	656.4000244
1520.053664	657.5999756
1520.570628	658.5999756
1521.087537	657.4000244
1521.604392	658.2000122
1522.121192	657.0
1522.637937	656.7999878
1523.154628	657.5999756
1523.671265	658.5999756
1524.187847	655.4000244
1524.704374	659.4000244
1525.220847	657.4000244
1525.737265	658.5999756
1526.253629	659.0
1526.769938	659.7999878
1527.286192	658.5999756
1527.802392	658.2000122
1528.318538	659.7999878
1528.834629	659.0
1529.350666	658.4000244
1529.866648	658.0
1530.382575	658.5999756
1530.898448	659.5999756
1531.414266	657.7999878
1531.93003	659.7999878
1532.44574	655.2000122
1532.961395	659.4000244
1533.476995	657.0
1533.992541	660.2000122
1534.508033	658.2000122
1535.02347	659.7999878
1535.538852	656.2000122
1536.05418	659.0
1536.569454	658.7999878
1537.084673	657.7999878
1537.599837	657.0
1538.114947	657.4000244
1538.630003	658.7999878
1539.145004	656.4000244
1539.659951	658.7999878
1540.174843	657.7999878
1540.689681	656.7999878
1541.204465	660.2000122
1541.719194	658.0
1542.233868	660.0
1542.748488	657.7999878
1543.263054	660.0
1543.777565	657.4000244
1544.292022	658.0
1544.806424	658.5999756
1545.320772	659.0
1545.835066	660.2000122
1546.349305	657.7999878
1546.863489	658.5999756
1547.37762	657.2000122
1547.891696	658.5999756
1548.405717	658.0
1548.919684	656.2000122
1549.433597	656.4000244
1549.947455	657.5999756
1550.461259	654.7999878
1550.975009	659.7999878
1551.488704	659.2000122
1552.002345	656.4000244
1552.515931	659.2000122
1553.029463	658.4000244
1553.542941	657.0
1554.056364	655.2000122
1554.569733	657.5999756
1555.083048	658.0
1555.596308	655.4000244
1556.109514	657.0
1556.622665	657.5999756
1557.135762	659.0
1557.648805	658.4000244
1558.161794	654.7999878
1558.674728	657.5999756
1559.187608	657.5999756
1559.700433	657.4000244
1560.213205	657.5999756
1560.725921	657.4000244
1561.238584	658.0
1561.751192	658.4000244
1562.263746	659.2000122
1562.776246	658.2000122
1563.288691	661.2000122
1563.801082	657.7999878
1564.313419	659.0
1564.825701	657.2000122
1565.337929	655.7999878
1565.850103	656.7999878
1566.362223	659.0
1566.874288	655.2000122
1567.386299	656.5999756
1567.898256	659.5999756
1568.410158	656.4000244
1568.922007	657.2000122
1569.4338	658.2000122
1569.94554	657.4000244
1570.457226	659.5999756
1570.968857	656.0
1571.480434	657.0
1571.991956	659.0
1572.503425	657.0
1573.014839	658.4000244
1573.526199	661.2000122
1574.037505	658.2000122
1574.548756	655.7999878
1575.059953	656.7999878
1575.571096	657.0
1576.082185	657.4000244
1576.59322	656.5999756
1577.1042	658.2000122
1577.615126	657.5999756
1578.125998	658.0
1578.636816	657.4000244
1579.14758	655.2000122
1579.658289	658.7999878
1580.168944	657.5999756
1580.679545	658.4000244
1581.190092	660.0
1581.700585	659.2000122
1582.211023	658.2000122
1582.721407	657.4000244
1583.231737	657.4000244
1583.742013	659.7999878
1584.252235	656.5999756
1584.762403	656.7999878
1585.272516	655.4000244
1585.782575	656.2000122
1586.292581	657.5999756
1586.802532	656.5999756
1587.312428	657.7999878
1587.822271	654.5999756
1588.33206	658.0
1588.841794	656.0
1589.351474	655.4000244
1589.8611	657.0
1590.370672	655.2000122
1590.88019	656.5999756
1591.389654	657.5999756
1591.899064	656.5999756
1592.408419	658.5999756
