1042.452273	676.2000122
1043.018714	676.2000122
1043.585098	674.5999756
1044.151424	677.7999878
1044.717692	673.4000244
1045.283903	671.7999878
1045.850056	672.4000244
1046.416151	670.7999878
1046.982188	669.5999756
1047.548167	671.0
1048.114089	672.0
1048.679953	671.2000122
1049.24576	671.5999756
1049.811509	669.0
1050.3772	668.7999878
1050.942833	670.4000244
1051.508408	667.5999756
1052.073926	667.2000122
1052.639387	666.4000244
1053.204789	670.4000244
1053.770134	668.7999878
1054.335421	669.4000244
1054.900651	672.5999756
1055.465823	667.4000244
1056.030937	668.2000122
1056.595993	667.4000244
1057.160992	668.0
1057.725934	668.0
1058.290817	669.4000244
1058.855643	666.5999756
1059.420411	668.0
1059.985122	666.7999878
1060.549775	666.0
1061.114371	668.4000244
1061.678908	665.4000244
1062.243389	666.4000244
1062.807811	666.0
1063.372176	665.5999756
1063.936483	670.2000122
1064.500733	666.5999756
1065.064925	666.7999878
1065.62906	669.0
1066.193137	667.0
1066.757156	669.4000244
1067.321118	665.0
1067.885022	669.2000122
1068.448869	665.7999878
1069.012658	667.5999756
1069.57639	667.0
1070.140063	672.2000122
1070.70368	667.0
1071.267239	665.7999878
1071.83074	667.5999756
1072.394184	667.4000244
1072.95757	666.5999756
1073.520899	668.4000244
1074.08417	664.2000122
1074.647383	664.7999878
1075.21054	668.0
1075.773638	667.5999756
1076.336679	666.5999756
1076.899663	666.4000244
1077.462589	667.0
1078.025457	665.7999878
1078.588268	663.4000244
1079.151022	665.2000122
1079.713718	665.0
1080.276356	661.7999878
1080.838937	664.7999878
1081.401461	665.4000244
1081.963927	666.0
1082.526336	668.7999878
1083.088687	665.7999878
1083.650981	666.0
1084.213217	667.4000244
1084.775396	664.7999878
1085.337517	664.0
1085.899581	667.0
1086.461587	665.4000244
1087.023536	668.0
1087.585428	665.7999878
1088.147262	666.4000244
1088.709039	667.4000244
1089.270758	668.4000244
1089.83242	665.0
1090.394024	664.7999878
1090.955571	663.4000244
1091.517061	667.0
1092.078493	665.4000244
1092.639868	665.5999756
1093.201185	664.0
1093.762445	666.0
1094.323648	667.5999756
1094.884793	666.4000244
1095.445881	667.7999878
1096.006911	662.7999878
1096.567884	666.4000244
1097.1288	671.2000122
1097.689659	665.7999878
1098.25046	666.5999756
1098.811203	668.2000122
1099.37189	700.4000244
1100.49309	702.4000244
1101.053604	666.0
1101.614061	668.0
1102.174461	665.5999756
1102.734803	664.4000244
1103.295088	665.2000122
1103.855316	666.7999878
1104.415486	665.7999878
1104.975599	668.4000244
1105.535655	668.5999756
1106.095653	665.2000122
1106.655594	669.4000244
1107.215478	666.0
1107.775305	667.4000244
1108.335074	665.7999878
1108.894786	667.0
1109.45444	667.4000244
1110.014038	669.2000122
1110.573578	666.7999878
1111.133061	670.0
1111.692486	667.0
1112.251854	669.5999756
1112.811165	666.0
1113.370419	665.2000122
1113.929616	668.4000244
1114.488755	671.5999756
1115.047837	668.7999878
1115.606862	668.7999878
1116.16583	669.4000244
1116.72474	668.4000244
1117.283593	668.0
1117.842389	668.7999878
1118.401128	671.5999756
1118.959809	667.7999878
1119.518433	668.2000122
1120.077	671.4000244
1120.63551	669.5999756
1121.193963	666.5999756
1121.752358	667.4000244
1122.310697	669.5999756
1122.868978	670.5999756
1123.427202	669.5999756
1123.985368	670.0
1124.543478	669.4000244
1125.10153	674.0
1125.659526	677.0
1126.217464	672.5999756
1126.775345	679.4000244
1127.333168	680.2000122
1127.890935	685.0
1128.448644	685.4000244
1129.006297	688.7999878
1129.563892	692.2000122
1130.12143	685.5999756
1130.678911	679.7999878
1131.236335	679.7999878
1131.793701	676.0
1132.351011	674.0
1132.908263	670.5999756
1133.465458	671.2000122
1134.022597	669.0
1134.579678	671.7999878
1135.136702	668.7999878
1135.693669	673.7999878
1136.250578	672.0
1136.807431	668.2000122
1137.364227	668.5999756
1137.920965	669.5999756
1138.477647	670.0
1139.034271	669.4000244
1139.590839	667.4000244
1140.147349	671.0
1140.703802	671.4000244
1141.260198	667.0
1141.816537	672.7999878
1142.37282	674.4000244
1142.929045	682.0
1143.485213	696.7999878
1144.041323	682.0
1144.597377	675.0
1145.153374	673.7999878
1145.709314	674.7999878
1146.265197	678.0
1146.821023	686.7999878
1147.376792	704.7999878
1147.932503	709.7999878
1148.488158	689.5999756
1149.043756	693.5999756
1149.599297	715.2000122
1150.154781	824.5999756
1150.710207	1052.400024
1151.265577	915.5999756
1151.82089	743.0
1152.376146	688.4000244
1152.931345	683.7999878
1153.486487	678.4000244
1154.041572	673.5999756
1154.5966	671.0
1155.151571	671.4000244
1155.706485	670.5999756
1156.261342	669.0
1156.816142	673.2000122
1157.370885	669.5999756
1157.925572	671.7999878
1158.480201	670.7999878
1159.034774	673.7999878
1159.589289	670.0
1160.143748	670.7999878
1160.698149	671.2000122
1161.252494	669.0
1161.806782	668.5999756
1162.361013	670.7999878
1162.915187	669.2000122
1163.469304	671.4000244
1164.023364	670.5999756
1164.577368	670.5999756
1165.131314	668.5999756
1165.685204	668.0
1166.239036	668.2000122
1166.792812	667.0
1167.346531	667.2000122
1167.900193	670.0
1168.453798	669.7999878
1169.007347	669.7999878
1169.560838	671.0
1170.114273	670.2000122
1170.66765	668.0
1171.220971	667.0
1171.774235	665.7999878
1172.327443	667.4000244
1172.880593	667.5999756
1173.433687	671.2000122
1173.986723	665.7999878
1174.539703	668.4000244
1175.092626	666.7999878
1175.645493	665.7999878
1176.198302	668.2000122
1176.751055	671.2000122
1177.303751	667.2000122
1177.85639	666.2000122
1178.408972	668.2000122
1178.961498	667.5999756
1179.513966	668.5999756
1180.066378	669.5999756
1180.618733	666.5999756
1181.171032	665.4000244
1181.723273	665.7999878
1182.275458	665.0
1182.827586	670.0
1183.379657	668.5999756
1183.931672	667.5999756
1184.48363	665.5999756
1185.035531	667.2000122
1185.587375	667.7999878
1186.139162	666.5999756
1186.690893	667.0
1187.242567	666.7999878
1187.794184	667.4000244
1188.345745	667.0
1188.897249	667.4000244
1189.448696	668.0
1190.000086	665.5999756
1190.55142	666.5999756
1191.102697	666.5999756
1191.653918	665.5999756
1192.205081	669.4000244
1192.756188	665.5999756
1193.858232	665.7999878
1194.409169	666.2000122
1194.960049	669.7999878
1195.510872	665.4000244
1196.061639	665.5999756
1196.612349	667.4000244
1197.163003	666.7999878
1197.713599	665.2000122
1198.264139	668.4000244
1198.814623	666.4000244
1199.36505	667.2000122
1199.91542	665.0
1200.465734	667.0
1201.01599	668.0
1201.566191	666.2000122
1202.116334	667.4000244
1202.666421	666.2000122
1203.216452	669.7999878
1203.766425	667.2000122
1204.316343	666.2000122
1204.866203	668.7999878
1205.416007	667.7999878
1205.965754	667.0
1206.515445	667.0
1207.065079	665.7999878
1207.614657	668.2000122
1208.164177	667.2000122
1208.713642	670.0
1209.26305	668.5999756
1209.812401	667.5999756
1210.361695	669.7999878
1210.910933	669.7999878
1211.460115	666.4000244
1212.00924	666.5999756
1212.558308	668.2000122
1213.10732	667.5999756
1213.656275	665.5999756
1214.205174	666.2000122
1214.754016	669.4000244
1215.302801	667.7999878
1215.85153	668.5999756
1216.400203	669.2000122
1216.948819	667.5999756
1217.497378	668.4000244
1218.045881	666.0
1218.594327	666.4000244
1219.142717	667.5999756
1219.691051	669.0
1220.239327	668.4000244
1220.787548	668.0
1221.335712	668.0
1221.883819	664.2000122
1222.43187	668.2000122
1222.979864	671.7999878
1223.527802	670.4000244
1224.075683	670.0
1224.623508	670.4000244
1225.171277	667.4000244
1225.718989	669.7999878
1226.266644	670.4000244
1226.814243	668.2000122
1227.361786	668.2000122
1227.909272	670.2000122
1228.456702	670.2000122
1229.004075	669.4000244
1229.551392	672.0
1230.098652	669.2000122
1230.645856	667.0
1231.193003	669.2000122
1231.740094	669.5999756
1232.287129	670.5999756
1232.834107	666.5999756
1233.381029	669.2000122
1233.927894	669.5999756
1234.474703	669.2000122
1235.021455	670.2000122
1235.568151	669.0
1236.114791	671.4000244
1236.661374	670.0
1237.207901	669.0
1237.754372	670.7999878
1238.300786	668.7999878
1238.847144	670.4000244
1239.393445	669.2000122
1239.93969	672.2000122
1240.485879	670.2000122
1241.032011	673.2000122
1241.578087	670.2000122
1242.124106	668.2000122
1242.67007	669.2000122
1243.215976	674.0
1243.761827	668.7999878
1244.307621	671.2000122
1244.853359	672.2000122
1245.39904	672.7999878
1245.944665	669.0
1246.490234	670.5999756
1247.035746	670.5999756
1247.581203	671.4000244
1248.126602	673.0
1248.671946	671.2000122
1249.217233	673.2000122
1249.762464	671.7999878
1250.307638	673.2000122
1250.852757	675.0
1251.397819	673.0
1251.942824	671.0
1252.487774	667.2000122
1253.032667	672.0
1253.577503	669.7999878
1254.122284	672.7999878
1254.667008	671.7999878
1255.211676	673.0
1255.756288	674.4000244
1256.300843	673.5999756
1256.845342	674.4000244
1257.389785	673.7999878
1257.934172	671.5999756
1258.478502	672.7999878
1259.022776	675.7999878
1259.566994	676.7999878
1260.111156	685.4000244
1260.655261	673.4000244
1261.199311	672.4000244
1261.743304	673.0
1262.28724	675.4000244
1262.831121	681.0
1263.374945	685.4000244
1263.918713	693.5999756
1264.462425	710.0
1265.006081	747.5999756
1265.54968	757.2000122
1266.093223	715.4000244
1266.636711	690.4000244
1267.180141	680.5999756
1267.723516	677.7999878
1268.266835	674.2000122
1268.810097	674.7999878
1269.353303	676.2000122
1269.896453	672.7999878
1270.439547	671.0
1270.982584	673.5999756
1271.525566	673.0
1272.068491	673.7999878
1272.61136	678.4000244
1273.154173	674.4000244
1273.69693	674.5999756
1274.239631	671.7999878
1274.782275	673.4000244
1275.324864	671.4000244
1275.867396	675.2000122
1276.409872	674.4000244
1276.952292	673.2000122
1277.494656	676.2000122
1278.036964	675.0
1278.579215	675.7999878
1279.121411	673.4000244
1279.66355	682.0
1280.205634	678.5999756
1280.747661	681.4000244
1281.289632	679.0
1281.831547	684.0
1282.373406	691.0
1282.915209	702.0
1283.456955	722.4000244
1283.998646	773.5999756
1284.540281	934.2000122
1285.081859	1457.400024
1285.623381	1940.0
1286.164848	1289.800049
1286.706258	839.7999878
1287.247612	738.4000244
1287.788911	705.0
1288.330153	690.2000122
1288.871339	687.4000244
1289.412469	686.7999878
1289.953543	680.5999756
1290.494561	677.2000122
1291.035523	680.0
1291.576428	676.7999878
1292.117278	673.2000122
1292.658072	677.5999756
1293.19881	675.0
1293.739492	675.0
1294.280118	674.5999756
1294.820687	675.4000244
1295.361201	676.0
1295.901659	674.4000244
1296.442061	670.7999878
1296.982406	672.0
1297.522696	674.0
1298.06293	669.7999878
1298.603108	677.0
1299.143229	674.0
1299.683295	674.2000122
1300.223305	672.5999756
1300.763259	672.4000244
1301.303157	674.7999878
1301.842999	672.2000122
1302.382785	670.5999756
1302.922515	674.2000122
1303.462189	675.4000244
1304.001807	672.7999878
1304.541369	674.4000244
1305.080875	673.7999878
1305.620326	673.0
1306.15972	670.5999756
1306.699058	671.7999878
1307.238341	673.0
1307.777567	672.2000122
1308.316738	672.7999878
1308.855853	673.0
1309.394912	673.4000244
1309.933915	674.2000122
1310.472862	674.7999878
1311.011753	672.2000122
1311.550588	673.0
1312.089367	671.0
1312.62809	672.5999756
1313.166758	674.5999756
1313.70537	673.7999878
1314.243925	672.7999878
1314.782425	672.4000244
1315.320869	675.7999878
1315.859257	672.5999756
1316.397589	673.7999878
1316.935866	670.4000244
1317.474086	671.0
1318.012251	670.5999756
1318.55036	672.7999878
1319.088413	674.5999756
1319.62641	671.2000122
1320.164351	671.5999756
1320.702236	669.7999878
1321.240066	671.5999756
1321.777839	668.5999756
1322.315557	673.2000122
1322.853219	669.7999878
1323.390826	672.4000244
1323.928376	677.7999878
1324.465871	671.5999756
1325.003309	671.2000122
1325.540692	672.4000244
1326.07802	670.7999878
1326.615291	673.5999756
1327.152506	671.0
1327.689666	669.7999878
1328.22677	672.7999878
1328.763818	672.4000244
1329.300811	674.0
1329.837747	672.7999878
1330.374628	673.0
1330.911453	669.5999756
1331.448222	674.5999756
1331.984936	673.4000244
1332.521594	669.7999878
1333.058196	674.0
1333.594742	672.2000122
1334.131232	670.2000122
1334.667667	672.4000244
1335.204046	672.7999878
1335.740369	673.2000122
1336.276637	672.2000122
1336.812848	670.5999756
1337.349004	671.0
1337.885105	670.4000244
1338.421149	675.5999756
1338.957138	668.5999756
1339.493071	671.0
1340.028949	672.0
1340.56477	672.0
1341.100536	670.2000122
1341.636246	671.4000244
1342.171901	677.0
1342.7075	672.2000122
1343.243043	670.7999878
1343.77853	671.7999878
1344.313962	673.7999878
1344.849338	673.2000122
1345.384659	676.7999878
1345.919923	671.7999878
1346.455133	673.5999756
1346.990286	672.2000122
1347.525384	669.7999878
1348.060426	672.4000244
1348.595412	672.5999756
1349.130343	672.4000244
1349.665218	672.2000122
1350.200037	671.5999756
1350.734801	673.7999878
1351.269509	673.0
1351.804162	671.0
1352.338758	674.4000244
1352.8733	674.0
1353.407785	674.4000244
1353.942215	672.4000244
1354.476589	674.2000122
1355.010908	674.4000244
1355.545171	675.4000244
1356.079379	676.0
1356.61353	671.0
1357.147627	671.4000244
1357.681667	674.0
1358.215652	670.4000244
1358.749582	672.4000244
1359.283456	672.4000244
1359.817274	674.7999878
1360.351037	672.2000122
1360.884744	673.4000244
1361.418395	673.4000244
1361.951991	672.0
1362.485531	674.4000244
1363.019016	673.5999756
1363.552445	673.7999878
1364.085819	672.2000122
1364.619137	678.0
1365.1524	675.7999878
1365.685607	676.2000122
1366.218758	678.2000122
1366.751854	681.2000122
1367.284894	679.7999878
1367.817879	673.7999878
1368.350808	677.4000244
1368.883682	677.4000244
1369.4165	677.2000122
1369.949263	683.7999878
1370.48197	714.2000122
1371.014622	694.2000122
1371.547218	676.4000244
1372.079758	674.7999878
1372.612244	674.0
1373.144673	672.5999756
1373.677047	675.7999878
1374.209366	674.2000122
1374.741629	674.5999756
1375.273836	673.5999756
1375.805989	675.0
1376.338085	678.0
1376.870126	674.4000244
1377.402112	674.0
1377.934042	676.5999756
1378.465917	676.0
1378.997736	679.4000244
1379.5295	677.7999878
1380.061208	678.2000122
1380.592861	680.4000244
1381.124459	679.0
1381.656	679.4000244
1382.187487	683.7999878
1382.718918	678.5999756
1383.250294	687.4000244
1383.781614	685.2000122
1384.312879	685.4000244
1384.844088	692.7999878
1385.375242	694.7999878
1385.90634	705.7999878
1386.437383	723.5999756
1386.968371	747.7999878
1387.499303	826.7999878
1388.03018	1175.199951
1388.561001	2465.800049
1389.091767	2657.0
1389.622478	1240.800049
1390.153133	819.7999878
1390.683733	740.7999878
1391.214277	706.2000122
1391.744766	699.2000122
1392.2752	694.2000122
1392.805578	687.7999878
1393.335901	681.4000244
1393.866168	686.5999756
1394.396381	677.0
1394.926537	679.2000122
1395.456639	679.0
1395.986685	678.4000244
1396.516675	678.7999878
1397.046611	676.7999878
1397.576491	679.7999878
1398.106315	676.0
1398.636084	678.2000122
1399.165798	676.5999756
1399.695457	675.0
1400.22506	674.0
1400.754608	674.4000244
1401.284101	678.2000122
1401.813538	676.0
1402.34292	673.5999756
1402.872247	675.2000122
1403.401518	674.4000244
1403.930734	674.2000122
1404.459895	673.4000244
1404.989	678.0
1405.51805	679.7999878
1406.047045	678.7999878
1406.575984	675.7999878
1407.104869	677.2000122
1407.633697	682.2000122
1408.162471	686.0
1408.691189	694.5999756
1409.219852	718.0
1409.74846	784.5999756
1410.277013	839.7999878
1410.80551	767.0
1411.333952	702.2000122
1411.862339	689.0
1412.39067	681.4000244
1412.918946	678.5999756
1413.447167	676.2000122
1413.975333	675.5999756
1414.503444	674.5999756
1415.031499	672.2000122
1415.559499	682.2000122
1416.087444	674.0
1416.615333	671.2000122
1417.143167	675.2000122
1417.670947	671.5999756
1418.19867	673.7999878
1418.726339	674.4000244
1419.253952	673.4000244
1419.781511	670.7999878
1420.309014	670.2000122
1420.836461	675.4000244
1421.363854	673.0
1421.891191	671.5999756
1422.418474	672.2000122
1422.945701	671.2000122
1423.472872	672.4000244
1423.999989	670.5999756
1424.52705	673.0
1425.054057	673.0
1425.581008	676.5999756
1426.107904	677.2000122
1426.634745	674.2000122
1427.16153	670.7999878
1427.688261	674.7999878
1428.214936	671.7999878
1428.741556	670.4000244
1429.268121	669.0
1429.794631	671.2000122
1430.321085	668.0
1430.847485	669.7999878
1431.373829	667.5999756
1431.900118	669.0
1432.426353	668.5999756
1432.952532	668.2000122
1433.478655	670.4000244
1434.004724	668.7999878
1434.530738	669.2000122
1435.056696	670.0
1435.5826	668.7999878
1436.108448	670.2000122
1436.634241	668.4000244
1437.159979	671.2000122
1437.685662	669.5999756
1438.21129	667.2000122
1438.736863	668.5999756
1439.262381	668.4000244
1439.787843	669.4000244
1440.313251	672.4000244
1440.838603	669.5999756
1441.3639	668.0
1441.889143	668.5999756
1442.41433	667.7999878
1442.939462	664.5999756
1443.464539	668.0
1443.989561	667.0
1444.514528	666.4000244
1445.03944	662.5999756
1445.564297	665.7999878
1446.089099	667.5999756
1446.613846	666.5999756
1447.138537	669.7999878
1447.663174	665.4000244
1448.187756	667.4000244
1448.712282	669.2000122
1449.236754	664.5999756
1449.761171	665.7999878
1450.285532	666.7999878
1450.809839	665.2000122
1451.33409	665.5999756
1451.858287	666.2000122
1452.382428	670.4000244
1452.906515	669.4000244
1453.430546	666.2000122
1453.954523	666.4000244
1454.478444	666.0
1455.002311	664.7999878
1455.526123	664.4000244
1456.049879	666.2000122
1456.573581	666.4000244
1457.097227	663.2000122
1457.620819	664.4000244
1458.144356	665.4000244
1458.667837	663.4000244
1459.191264	665.2000122
1459.714636	666.2000122
1460.237952	664.7999878
1460.761214	666.0
1461.284421	665.2000122
1461.807573	665.5999756
1462.33067	664.2000122
1462.853712	668.2000122
1463.376699	667.4000244
1463.899632	663.0
1464.422509	664.4000244
1464.945331	665.5999756
1465.468099	666.4000244
1465.990811	662.5999756
1466.513469	665.2000122
1467.036071	665.0
1467.558619	665.4000244
1468.081112	666.0
1468.60355	662.4000244
1469.125933	663.2000122
1469.648261	667.7999878
1470.170534	666.2000122
1470.692752	666.2000122
1471.214916	662.0
1471.737024	665.0
1472.259078	665.7999878
1472.781077	661.0
1473.303021	663.7999878
1473.82491	663.7999878
1474.346744	664.2000122
1474.868523	662.7999878
1475.390248	662.7999878
1475.911917	665.5999756
1476.433532	663.7999878
1476.955092	663.4000244
1477.476597	665.0
1477.998047	665.2000122
1478.519442	664.4000244
1479.040783	667.2000122
1479.562068	662.7999878
1480.083299	663.0
1480.604475	662.5999756
1481.125596	664.5999756
1481.646663	663.4000244
1482.167674	663.0
1482.688631	663.5999756
1483.209533	663.4000244
1483.73038	662.2000122
1484.251172	665.0
1484.771909	665.5999756
1485.292592	661.7999878
1485.81322	662.2000122
1486.333793	667.4000244
1486.854311	663.7999878
1487.374775	661.7999878
1487.895183	663.4000244
1488.415537	665.0
1488.935836	665.0
1489.456081	664.4000244
1489.97627	660.2000122
1490.496405	666.0
1491.016485	665.5999756
1491.536511	664.2000122
1492.056481	665.7999878
1492.576397	660.4000244
1493.096258	662.4000244
1493.616064	664.7999878
1494.135816	664.0
1494.655513	662.5999756
1495.175155	662.2000122
1495.694742	663.2000122
1496.214274	664.0
1496.733752	662.5999756
1497.253175	664.0
1497.772544	664.0
1498.291858	662.4000244
1498.811116	664.7999878
1499.330321	662.0
1499.84947	669.2000122
1500.368565	662.2000122
1500.887605	664.2000122
1501.406591	664.2000122
1501.925521	661.4000244
1502.444397	665.0
1502.963219	665.0
1503.481985	664.4000244
1504.000697	663.0
1504.519355	666.4000244
1505.037957	662.2000122
1505.556505	661.7999878
1506.074999	663.4000244
1506.593437	663.2000122
1507.111821	665.0
1507.63015	663.5999756
1508.148425	665.7999878
1508.666645	662.2000122
1509.18481	661.0
1509.702921	662.0
1510.220977	663.5999756
1510.738979	670.2000122
1511.256925	662.4000244
1511.774817	664.2000122
1512.292655	663.2000122
1512.810438	660.7999878
1513.328166	663.5999756
1513.84584	666.0
1514.363459	664.4000244
1514.881023	663.5999756
1515.398533	663.7999878
1515.915988	663.5999756
1516.433389	663.7999878
1516.950734	662.5999756
1517.468026	664.4000244
1517.985263	661.0
1518.502445	663.5999756
1519.019572	664.2000122
1519.536645	664.7999878
1520.053664	662.5999756
1520.570628	666.7999878
1521.087537	665.0
1521.604392	665.0
1522.121192	663.4000244
1522.637937	662.5999756
1523.154628	663.2000122
1523.671265	665.5999756
1524.187847	662.7999878
1524.704374	664.4000244
1525.220847	663.4000244
1525.737265	661.5999756
1526.253629	664.5999756
1526.769938	664.0
1527.286192	664.4000244
1527.802392	664.7999878
1528.318538	666.4000244
1528.834629	663.0
1529.350666	664.0
1529.866648	662.5999756
1530.382575	664.2000122
1530.898448	662.0
1531.414266	664.4000244
1531.93003	663.0
1532.44574	662.2000122
1532.961395	665.4000244
1533.476995	661.7999878
1533.992541	662.4000244
1534.508033	663.2000122
1535.02347	665.2000122
1535.538852	662.4000244
1536.05418	661.0
1536.569454	661.4000244
1537.084673	663.7999878
1537.599837	663.7999878
1538.114947	665.0
1538.630003	663.2000122
1539.145004	663.2000122
1539.659951	664.7999878
1540.174843	664.4000244
1540.689681	665.0
1541.204465	664.5999756
1541.719194	661.4000244
1542.233868	663.0
1542.748488	661.5999756
1543.263054	662.5999756
1543.777565	663.0
1544.292022	661.5999756
1544.806424	663.7999878
1545.320772	665.4000244
1545.835066	663.5999756
1546.349305	662.5999756
1546.863489	663.0
1547.37762	664.4000244
1547.891696	663.4000244
1548.405717	662.4000244
1548.919684	661.0
1549.433597	662.7999878
1549.947455	663.5999756
1550.461259	661.0
1550.975009	659.7999878
1551.488704	666.4000244
1552.002345	666.0
1552.515931	664.0
1553.029463	661.2000122
1553.542941	662.0
1554.056364	663.7999878
1554.569733	666.2000122
1555.083048	663.5999756
1555.596308	664.0
1556.109514	664.2000122
1556.622665	664.2000122
1557.135762	666.0
1557.648805	665.4000244
1558.161794	665.4000244
1558.674728	661.0
1559.187608	662.5999756
1559.700433	664.4000244
1560.213205	662.7999878
1560.725921	661.2000122
1561.238584	666.0
1561.751192	663.7999878
1562.263746	665.0
1562.776246	662.4000244
1563.288691	664.5999756
1563.801082	664.2000122
1564.313419	664.5999756
1564.825701	662.4000244
1565.337929	663.2000122
1565.850103	663.2000122
1566.362223	664.2000122
1566.874288	663.7999878
1567.386299	666.0
1567.898256	663.2000122
1568.410158	664.7999878
1568.922007	661.7999878
1569.4338	659.7999878
1569.94554	663.7999878
1570.457226	664.4000244
1570.968857	664.4000244
1571.480434	663.2000122
1571.991956	666.0
1572.503425	663.4000244
1573.014839	663.4000244
1573.526199	663.5999756
1574.037505	663.0
1574.548756	665.2000122
1575.059953	662.4000244
1575.571096	663.0
1576.082185	664.7999878
1576.59322	663.4000244
1577.1042	663.5999756
1577.615126	662.2000122
1578.125998	662.0
1578.636816	665.4000244
1579.14758	664.5999756
1579.658289	664.4000244
1580.168944	663.0
1580.679545	663.5999756
1581.190092	661.0
1581.700585	662.4000244
1582.211023	665.2000122
1582.721407	663.7999878
1583.231737	663.0
1583.742013	665.0
1584.252235	665.4000244
1584.762403	660.7999878
1585.272516	663.0
1585.782575	663.7999878
1586.292581	660.7999878
1586.802532	664.5999756
1587.312428	662.7999878
1587.822271	663.7999878
1588.33206	662.0
1588.841794	663.4000244
1589.351474	662.7999878
1589.8611	663.7999878
1590.370672	662.2000122
1590.88019	660.5999756
1591.389654	662.5999756
1591.899064	662.4000244
1592.408419	663.7999878
