1042.452273	668.7999878
1043.018714	666.4000244
1043.585098	665.2000122
1044.151424	664.2000122
1044.717692	666.0
1045.283903	666.5999756
1045.850056	664.5999756
1046.416151	664.5999756
1046.982188	666.7999878
1047.548167	666.2000122
1048.114089	666.7999878
1048.679953	663.7999878
1049.24576	663.7999878
1049.811509	663.4000244
1050.3772	663.5999756
1050.942833	665.5999756
1051.508408	661.4000244
1052.073926	660.7999878
1052.639387	663.7999878
1053.204789	663.7999878
1053.770134	660.4000244
1054.335421	662.2000122
1054.900651	662.0
1055.465823	660.4000244
1056.030937	660.7999878
1056.595993	659.0
1057.160992	661.7999878
1057.725934	661.0
1058.290817	661.7999878
1058.855643	661.7999878
1059.420411	661.0
1059.985122	661.7999878
1060.549775	659.5999756
1061.114371	658.7999878
1061.678908	660.7999878
1062.243389	661.7999878
1062.807811	661.7999878
1063.372176	662.2000122
1063.936483	658.7999878
1064.500733	661.2000122
1065.064925	660.7999878
1065.62906	661.0
1066.193137	658.2000122
1066.757156	658.2000122
1067.321118	657.5999756
1067.885022	660.0
1068.448869	657.5999756
1069.012658	661.2000122
1069.57639	659.0
1070.140063	663.5999756
1070.70368	659.4000244
1071.267239	659.5999756
1071.83074	659.5999756
1072.394184	658.0
1072.95757	659.2000122
1073.520899	656.5999756
1074.08417	661.5999756
1074.647383	660.7999878
1075.21054	659.7999878
1075.773638	661.2000122
1076.336679	659.4000244
1076.899663	659.7999878
1077.462589	656.7999878
1078.025457	657.7999878
1078.588268	657.7999878
1079.151022	660.0
1079.713718	659.0
1080.276356	658.5999756
1080.838937	658.5999756
1081.401461	658.7999878
1081.963927	659.7999878
1082.526336	659.5999756
1083.088687	658.7999878
1083.650981	659.5999756
1084.213217	658.5999756
1084.775396	660.7999878
1085.337517	657.7999878
1085.899581	659.4000244
1086.461587	657.7999878
1087.023536	659.5999756
1087.585428	656.4000244
1088.147262	658.4000244
1088.709039	657.0
1089.270758	660.7999878
1089.83242	659.2000122
1090.394024	659.7999878
1090.955571	657.7999878
1091.517061	658.0
1092.078493	657.5999756
1092.639868	658.4000244
1093.201185	658.5999756
1093.762445	658.4000244
1094.323648	657.4000244
1094.884793	658.0
1095.445881	662.4000244
1096.006911	659.4000244
1096.567884	659.2000122
1097.1288	663.5999756
1097.689659	657.5999756
1098.25046	657.5999756
1098.811203	660.7999878
1099.37189	660.4000244
1099.932518	659.0
1100.49309	658.4000244
1101.053604	658.7999878
1101.614061	659.0
1102.174461	658.2000122
1102.734803	656.4000244
1103.295088	659.7999878
1103.855316	660.7999878
1104.415486	658.5999756
1104.975599	660.5999756
1105.535655	659.2000122
1106.095653	659.0
1106.655594	659.0
1107.215478	658.4000244
1107.775305	655.5999756
1108.335074	656.0
1108.894786	658.4000244
1109.45444	658.0
1110.014038	661.0
1110.573578	659.4000244
1111.133061	659.0
1111.692486	660.4000244
1112.251854	661.4000244
1112.811165	659.0
1113.370419	659.4000244
1113.929616	659.2000122
1114.488755	659.4000244
1115.047837	659.0
1115.606862	661.4000244
1116.16583	658.7999878
1116.72474	657.2000122
1117.283593	660.5999756
1117.842389	660.2000122
1118.401128	658.7999878
1118.959809	656.0
1119.518433	657.7999878
1120.077	658.7999878
1120.63551	659.2000122
1121.193963	657.4000244
1121.752358	661.5999756
1122.310697	659.4000244
1122.868978	659.4000244
1123.427202	658.5999756
1123.985368	658.4000244
1124.543478	660.0
1125.10153	657.2000122
1125.659526	661.7999878
1126.217464	655.5999756
1126.775345	658.4000244
1127.333168	657.2000122
1127.890935	660.4000244
1128.448644	658.4000244
1129.006297	658.7999878
1129.563892	658.5999756
1130.12143	658.4000244
1130.678911	657.2000122
1131.236335	658.4000244
1131.793701	657.0
1132.351011	658.2000122
1132.908263	659.2000122
1133.465458	658.0
1134.022597	657.5999756
1134.579678	659.4000244
1135.136702	656.2000122
1135.693669	660.2000122
1136.250578	659.5999756
1136.807431	659.0
1137.364227	657.5999756
1137.920965	659.2000122
1138.477647	658.2000122
1139.034271	660.4000244
1139.590839	658.2000122
1140.147349	658.7999878
1140.703802	657.7999878
1141.260198	658.7999878
1141.816537	656.4000244
1142.37282	658.5999756
1142.929045	659.0
1143.485213	660.0
1144.041323	659.0
1144.597377	657.2000122
1145.153374	657.0
1145.709314	660.0
1146.265197	661.0
1146.821023	658.7999878
1147.376792	661.4000244
1147.932503	661.7999878
1148.488158	658.5999756
1149.043756	659.0
1149.599297	662.5999756
1150.154781	662.5999756
1150.710207	677.5999756
1151.265577	672.0
1151.82089	662.5999756
1152.376146	659.5999756
1152.931345	659.7999878
1153.486487	658.2000122
1154.041572	657.7999878
1154.5966	657.0
1155.151571	659.2000122
1155.706485	659.5999756
1156.261342	656.5999756
1156.816142	657.2000122
1157.370885	658.5999756
1157.925572	657.7999878
1158.480201	657.4000244
1159.034774	658.7999878
1159.589289	657.7999878
1160.143748	657.0
1160.698149	658.5999756
1161.252494	660.5999756
1161.806782	656.0
1162.361013	656.4000244
1162.915187	658.5999756
1163.469304	660.4000244
1164.023364	659.0
1164.577368	656.7999878
1165.131314	660.0
1165.685204	660.5999756
1166.239036	659.4000244
1166.792812	657.5999756
1167.346531	658.7999878
1167.900193	658.7999878
1168.453798	658.2000122
1169.007347	657.0
1169.560838	659.0
1170.114273	660.0
1170.66765	658.7999878
1171.220971	658.5999756
1171.774235	658.5999756
1172.327443	656.7999878
1172.880593	661.2000122
1173.433687	659.7999878
1173.986723	659.0
1174.539703	659.7999878
1175.092626	659.2000122
1175.645493	657.5999756
1176.198302	659.0
1176.751055	658.4000244
1177.303751	660.0
1177.85639	659.2000122
1178.408972	659.4000244
1178.961498	660.4000244
1179.513966	661.5999756
1180.066378	658.0
1180.618733	657.7999878
1181.171032	658.7999878
1181.723273	658.5999756
1182.275458	658.0
1182.827586	656.7999878
1183.379657	658.7999878
1183.931672	659.4000244
1184.48363	659.2000122
1185.035531	660.4000244
1185.587375	660.0
1186.139162	660.0
1186.690893	659.4000244
1187.242567	660.2000122
1187.794184	659.5999756
1188.345745	660.4000244
1188.897249	659.0
1189.448696	659.0
1190.000086	657.7999878
1190.55142	659.5999756
1191.102697	658.2000122
1191.653918	659.5999756
1192.205081	659.0
1192.756188	658.4000244
1193.858232	659.5999756
1194.409169	658.2000122
1194.960049	659.5999756
1195.510872	662.0
1196.061639	656.0
1196.612349	658.4000244
1197.163003	660.5999756
1197.713599	660.7999878
1198.264139	658.2000122
1198.814623	658.4000244
1199.36505	658.4000244
1199.91542	660.0
1200.465734	658.7999878
1201.01599	658.7999878
1201.566191	658.7999878
1202.116334	658.5999756
1202.666421	660.7999878
1203.216452	657.2000122
1203.766425	660.7999878
1204.316343	657.7999878
1204.866203	658.2000122
1205.416007	658.2000122
1205.965754	658.2000122
1206.515445	657.2000122
1207.065079	659.2000122
1207.614657	659.7999878
1208.164177	658.2000122
1208.713642	658.5999756
1209.26305	658.7999878
1209.812401	658.0
1210.361695	661.4000244
1210.910933	659.4000244
1211.460115	658.2000122
1212.00924	656.7999878
1212.558308	658.7999878
1213.10732	659.2000122
1213.656275	658.5999756
1214.205174	659.0
1214.754016	659.5999756
1215.302801	660.7999878
1215.85153	658.4000244
1216.400203	658.2000122
1216.948819	659.2000122
1217.497378	658.2000122
1218.045881	657.0
1218.594327	659.2000122
1219.142717	658.4000244
1219.691051	659.7999878
1220.239327	661.4000244
1220.787548	660.7999878
1221.335712	656.0
1221.883819	659.7999878
1222.43187	659.7999878
1222.979864	661.4000244
1223.527802	656.5999756
1224.075683	657.7999878
1224.623508	659.5999756
1225.171277	658.7999878
1225.718989	658.7999878
1226.266644	657.7999878
1226.814243	660.4000244
1227.361786	659.0
1227.909272	660.0
1228.456702	658.5999756
1229.004075	659.2000122
1229.551392	659.5999756
1230.098652	659.5999756
1230.645856	659.7999878
1231.193003	661.2000122
1231.740094	660.4000244
1232.287129	662.5999756
1232.834107	657.2000122
1233.381029	659.0
1233.927894	660.7999878
1234.474703	657.4000244
1235.021455	662.0
1235.568151	658.4000244
1236.114791	658.7999878
1236.661374	661.4000244
1237.207901	659.7999878
1237.754372	657.4000244
1238.300786	659.2000122
1238.847144	661.7999878
1239.393445	658.2000122
1239.93969	661.5999756
1240.485879	659.7999878
1241.032011	660.2000122
1241.578087	656.5999756
1242.124106	660.4000244
1242.67007	660.2000122
1243.215976	658.2000122
1243.761827	658.7999878
1244.307621	659.0
1244.853359	659.4000244
1245.39904	659.5999756
1245.944665	660.0
1246.490234	661.5999756
1247.035746	659.2000122
1247.581203	658.4000244
1248.126602	659.5999756
1248.671946	659.2000122
1249.217233	659.0
1249.762464	661.2000122
1250.307638	659.4000244
1250.852757	660.4000244
1251.397819	660.0
1251.942824	659.7999878
1252.487774	660.7999878
1253.032667	659.5999756
1253.577503	659.5999756
1254.122284	660.7999878
1254.667008	661.0
1255.211676	658.7999878
1255.756288	661.4000244
1256.300843	659.7999878
1256.845342	659.0
1257.389785	656.5999756
1257.934172	661.0
1258.478502	658.7999878
1259.022776	659.5999756
1259.566994	659.5999756
1260.111156	666.5999756
1260.655261	660.7999878
1261.199311	660.7999878
1261.743304	658.5999756
1262.28724	659.0
1262.831121	659.4000244
1263.374945	661.0
1263.918713	660.7999878
1264.462425	659.5999756
1265.006081	663.0
1265.54968	665.0
1266.093223	660.2000122
1266.636711	660.7999878
1267.180141	659.5999756
1267.723516	659.4000244
1268.266835	659.5999756
1268.810097	660.2000122
1269.353303	660.2000122
1269.896453	660.0
1270.439547	656.5999756
1270.982584	658.7999878
1271.525566	659.2000122
1272.068491	659.5999756
1272.61136	658.2000122
1273.154173	661.7999878
1273.69693	661.2000122
1274.239631	656.0
1274.782275	658.0
1275.324864	660.2000122
1275.867396	658.7999878
1276.409872	660.7999878
1276.952292	657.7999878
1277.494656	658.2000122
1278.036964	658.2000122
1278.579215	658.4000244
1279.121411	659.7999878
1279.66355	660.5999756
1280.205634	659.4000244
1280.747661	659.4000244
1281.289632	658.4000244
1281.831547	661.5999756
1282.373406	658.5999756
1282.915209	659.2000122
1283.456955	662.7999878
1283.998646	666.5999756
1284.540281	668.7999878
1285.081859	697.5999756
1285.623381	709.7999878
1286.164848	685.2000122
1286.706258	667.0
1287.247612	663.0
1287.788911	661.0
1288.330153	660.5999756
1288.871339	661.5999756
1289.412469	657.7999878
1289.953543	660.5999756
1290.494561	660.5999756
1291.035523	660.2000122
1291.576428	658.5999756
1292.117278	661.5999756
1292.658072	659.0
1293.19881	659.7999878
1293.739492	659.0
1294.280118	660.4000244
1294.820687	662.4000244
1295.361201	660.2000122
1295.901659	659.7999878
1296.442061	660.4000244
1296.982406	661.2000122
1297.522696	660.5999756
1298.06293	659.5999756
1298.603108	658.4000244
1299.143229	660.5999756
1299.683295	660.4000244
1300.223305	660.2000122
1300.763259	659.2000122
1301.303157	658.4000244
1301.842999	660.2000122
1302.382785	660.5999756
1302.922515	659.7999878
1303.462189	661.4000244
1304.001807	660.0
1304.541369	658.7999878
1305.080875	657.7999878
1305.620326	659.0
1306.15972	661.2000122
1306.699058	659.5999756
1307.238341	659.4000244
1307.777567	661.7999878
1308.316738	659.2000122
1308.855853	660.5999756
1309.394912	659.2000122
1309.933915	660.2000122
1310.472862	660.4000244
1311.011753	659.7999878
1311.550588	659.4000244
1312.089367	662.0
1312.62809	661.2000122
1313.166758	660.0
1313.70537	660.2000122
1314.243925	659.4000244
1314.782425	660.4000244
1315.320869	660.4000244
1315.859257	659.7999878
1316.397589	659.5999756
1316.935866	660.2000122
1317.474086	659.0
1318.012251	660.5999756
1318.55036	660.2000122
1319.088413	659.5999756
1319.62641	657.7999878
1320.164351	658.7999878
1320.702236	660.7999878
1321.240066	659.4000244
1321.777839	659.5999756
1322.315557	658.0
1322.853219	657.2000122
1323.390826	660.5999756
1323.928376	663.5999756
1324.465871	663.7999878
1325.003309	657.4000244
1325.540692	660.4000244
1326.07802	659.5999756
1326.615291	660.5999756
1327.152506	661.0
1327.689666	662.0
1328.22677	662.2000122
1328.763818	659.0
1329.300811	660.4000244
1329.837747	661.5999756
1330.374628	657.2000122
1330.911453	660.7999878
1331.448222	659.2000122
1331.984936	659.7999878
1332.521594	661.2000122
1333.058196	661.2000122
1333.594742	660.5999756
1334.131232	659.2000122
1334.667667	660.5999756
1335.204046	660.7999878
1335.740369	659.2000122
1336.276637	659.7999878
1336.812848	659.7999878
1337.349004	660.5999756
1337.885105	658.4000244
1338.421149	659.4000244
1338.957138	662.2000122
1339.493071	660.7999878
1340.028949	659.2000122
1340.56477	658.7999878
1341.100536	661.7999878
1341.636246	660.2000122
1342.171901	659.2000122
1342.7075	663.0
1343.243043	660.0
1343.77853	661.2000122
1344.313962	658.0
1344.849338	662.4000244
1345.384659	659.2000122
1345.919923	661.2000122
1346.455133	660.2000122
1346.990286	660.0
1347.525384	661.2000122
1348.060426	659.4000244
1348.595412	659.5999756
1349.130343	660.5999756
1349.665218	660.4000244
1350.200037	660.5999756
1350.734801	661.0
1351.269509	660.4000244
1351.804162	660.7999878
1352.338758	660.5999756
1352.8733	661.0
1353.407785	660.0
1353.942215	660.2000122
1354.476589	660.4000244
1355.010908	662.0
1355.545171	662.7999878
1356.079379	659.0
1356.61353	662.0
1357.147627	660.5999756
1357.681667	660.0
1358.215652	655.5999756
1358.749582	659.2000122
1359.283456	662.7999878
1359.817274	659.4000244
1360.351037	660.0
1360.884744	660.2000122
1361.418395	661.2000122
1361.951991	664.0
1362.485531	661.0
1363.019016	660.4000244
1363.552445	659.4000244
1364.085819	660.4000244
1364.619137	659.5999756
1365.1524	659.7999878
1365.685607	661.2000122
1366.218758	661.4000244
1366.751854	660.5999756
1367.284894	660.2000122
1367.817879	660.2000122
1368.350808	664.0
1368.883682	661.2000122
1369.4165	661.2000122
1369.949263	662.7999878
1370.48197	661.2000122
1371.014622	659.4000244
1371.547218	659.2000122
1372.079758	661.5999756
1372.612244	660.4000244
1373.144673	659.5999756
1373.677047	660.4000244
1374.209366	660.2000122
1374.741629	660.5999756
1375.273836	659.5999756
1375.805989	662.7999878
1376.338085	661.0
1376.870126	660.2000122
1377.402112	660.0
1377.934042	662.2000122
1378.465917	658.7999878
1378.997736	661.4000244
1379.5295	661.0
1380.061208	660.5999756
1380.592861	662.5999756
1381.124459	659.5999756
1381.656	662.0
1382.187487	663.2000122
1382.718918	663.4000244
1383.250294	662.2000122
1383.781614	662.4000244
1384.312879	661.0
1384.844088	662.0
1385.375242	660.5999756
1385.90634	663.4000244
1386.437383	660.7999878
1386.968371	665.0
1387.499303	667.0
1388.03018	686.2000122
1388.561001	737.5999756
1389.091767	747.7999878
1389.622478	691.2000122
1390.153133	666.5999756
1390.683733	663.7999878
1391.214277	662.2000122
1391.744766	661.2000122
1392.2752	662.5999756
1392.805578	662.4000244
1393.335901	664.0
1393.866168	661.7999878
1394.396381	660.4000244
1394.926537	658.0
1395.456639	661.0
1395.986685	660.0
1396.516675	661.7999878
1397.046611	661.5999756
1397.576491	660.7999878
1398.106315	661.2000122
1398.636084	662.7999878
1399.165798	662.5999756
1399.695457	661.2000122
1400.22506	663.2000122
1400.754608	662.2000122
1401.284101	658.2000122
1401.813538	660.0
1402.34292	659.4000244
1402.872247	660.5999756
1403.401518	658.7999878
1403.930734	661.2000122
1404.459895	662.2000122
1404.989	660.5999756
1405.51805	659.4000244
1406.047045	662.4000244
1406.575984	659.2000122
1407.104869	662.0
1407.633697	661.4000244
1408.162471	660.2000122
1408.691189	661.5999756
1409.219852	662.2000122
1409.74846	665.4000244
1410.277013	666.0
1410.80551	667.4000244
1411.333952	660.7999878
1411.862339	660.0
1412.39067	663.2000122
1412.918946	659.4000244
1413.447167	658.5999756
1413.975333	661.2000122
1414.503444	661.0
1415.031499	661.4000244
1415.559499	670.0
1416.087444	659.4000244
1416.615333	659.7999878
1417.143167	663.5999756
1417.670947	661.7999878
1418.19867	660.5999756
1418.726339	659.5999756
1419.253952	659.5999756
1419.781511	660.0
1420.309014	661.5999756
1420.836461	660.2000122
1421.363854	659.5999756
1421.891191	660.5999756
1422.418474	661.4000244
1422.945701	663.7999878
1423.472872	659.4000244
1423.999989	659.7999878
1424.52705	660.4000244
1425.054057	661.4000244
1425.581008	661.0
1426.107904	657.2000122
1426.634745	660.7999878
1427.16153	658.5999756
1427.688261	661.0
1428.214936	660.2000122
1428.741556	659.0
1429.268121	662.5999756
1429.794631	661.4000244
1430.321085	661.7999878
1430.847485	660.0
1431.373829	659.0
1431.900118	659.5999756
1432.426353	659.5999756
1432.952532	660.5999756
1433.478655	661.4000244
1434.004724	660.0
1434.530738	660.0
1435.056696	659.5999756
1435.5826	660.7999878
1436.108448	662.7999878
1436.634241	662.2000122
1437.159979	661.5999756
1437.685662	661.5999756
1438.21129	662.0
1438.736863	660.2000122
1439.262381	661.2000122
1439.787843	657.2000122
1440.313251	660.2000122
1440.838603	661.7999878
1441.3639	662.2000122
1441.889143	661.2000122
1442.41433	662.0
1442.939462	660.7999878
1443.464539	660.4000244
1443.989561	662.7999878
1444.514528	661.2000122
1445.03944	662.0
1445.564297	657.5999756
1446.089099	661.4000244
1446.613846	660.4000244
1447.138537	661.0
1447.663174	661.2000122
1448.187756	659.7999878
1448.712282	661.4000244
1449.236754	660.2000122
1449.761171	660.7999878
1450.285532	659.7999878
1450.809839	662.0
1451.33409	660.4000244
1451.858287	659.4000244
1452.382428	660.7999878
1452.906515	658.4000244
1453.430546	661.4000244
1453.954523	661.2000122
1454.478444	661.4000244
1455.002311	662.2000122
1455.526123	663.5999756
1456.049879	661.0
1456.573581	661.0
1457.097227	661.5999756
1457.620819	659.7999878
1458.144356	661.2000122
1458.667837	660.4000244
1459.191264	659.2000122
1459.714636	662.0
1460.237952	660.0
1460.761214	658.5999756
1461.284421	665.7999878
1461.807573	658.2000122
1462.33067	661.5999756
1462.853712	661.2000122
1463.376699	661.5999756
1463.899632	659.5999756
1464.422509	663.2000122
1464.945331	660.4000244
1465.468099	662.0
1465.990811	660.7999878
1466.513469	660.7999878
1467.036071	658.7999878
1467.558619	663.4000244
1468.081112	661.2000122
1468.60355	660.7999878
1469.125933	662.5999756
1469.648261	662.0
1470.170534	663.0
1470.692752	664.0
1471.214916	661.7999878
1471.737024	662.4000244
1472.259078	662.5999756
1472.781077	658.0
1473.303021	659.7999878
1473.82491	663.2000122
1474.346744	662.2000122
1474.868523	661.5999756
1475.390248	660.0
1475.911917	660.5999756
1476.433532	659.4000244
1476.955092	662.5999756
1477.476597	660.5999756
1477.998047	664.2000122
1478.519442	661.5999756
1479.040783	663.4000244
1479.562068	658.7999878
1480.083299	661.0
1480.604475	662.5999756
1481.125596	660.5999756
1481.646663	661.7999878
1482.167674	660.4000244
1482.688631	664.0
1483.209533	663.0
1483.73038	660.0
1484.251172	659.7999878
1484.771909	662.0
1485.292592	662.0
1485.81322	661.5999756
1486.333793	661.2000122
1486.854311	661.4000244
1487.374775	661.0
1487.895183	661.2000122
1488.415537	664.2000122
1488.935836	663.0
1489.456081	661.4000244
1489.97627	660.2000122
1490.496405	661.7999878
1491.016485	659.0
1491.536511	658.2000122
1492.056481	661.5999756
1492.576397	661.2000122
1493.096258	659.7999878
1493.616064	659.7999878
1494.135816	661.5999756
1494.655513	659.0
1495.175155	662.2000122
1495.694742	659.5999756
1496.214274	661.5999756
1496.733752	664.4000244
1497.253175	658.7999878
1497.772544	660.2000122
1498.291858	663.0
1498.811116	662.7999878
1499.330321	660.0
1499.84947	662.7999878
1500.368565	664.4000244
1500.887605	661.0
1501.406591	662.0
1501.925521	661.7999878
1502.444397	658.5999756
1502.963219	660.2000122
1503.481985	659.5999756
1504.000697	662.5999756
1504.519355	658.7999878
1505.037957	660.0
1505.556505	662.0
1506.074999	662.5999756
1506.593437	662.0
1507.111821	661.2000122
1507.63015	659.0
1508.148425	660.4000244
1508.666645	661.0
1509.18481	661.2000122
1509.702921	660.4000244
1510.220977	661.5999756
1510.738979	668.4000244
1511.256925	661.0
1511.774817	661.7999878
1512.292655	661.7999878
1512.810438	661.0
1513.328166	664.7999878
1513.84584	660.2000122
1514.363459	661.5999756
1514.881023	661.0
1515.398533	660.0
1515.915988	661.4000244
1516.433389	658.2000122
1516.950734	660.7999878
1517.468026	662.2000122
1517.985263	660.4000244
1518.502445	660.7999878
1519.019572	659.7999878
1519.536645	661.7999878
1520.053664	658.2000122
1520.570628	661.5999756
1521.087537	660.7999878
1521.604392	663.2000122
1522.121192	659.5999756
1522.637937	659.7999878
1523.154628	662.0
1523.671265	660.5999756
1524.187847	659.5999756
1524.704374	662.2000122
1525.220847	662.4000244
1525.737265	660.7999878
1526.253629	659.4000244
1526.769938	662.0
1527.286192	659.0
1527.802392	660.0
1528.318538	663.0
1528.834629	660.0
1529.350666	661.2000122
1529.866648	662.7999878
1530.382575	660.0
1530.898448	661.0
1531.414266	662.4000244
1531.93003	662.2000122
1532.44574	661.2000122
1532.961395	660.0
1533.476995	661.4000244
1533.992541	659.0
1534.508033	659.5999756
1535.02347	661.2000122
1535.538852	659.7999878
1536.05418	660.7999878
1536.569454	660.7999878
1537.084673	661.4000244
1537.599837	659.0
1538.114947	660.7999878
1538.630003	659.0
1539.145004	659.2000122
1539.659951	659.4000244
1540.174843	663.4000244
1540.689681	660.5999756
1541.204465	659.0
1541.719194	659.2000122
1542.233868	660.4000244
1542.748488	657.7999878
1543.263054	661.2000122
1543.777565	660.7999878
1544.292022	662.2000122
1544.806424	661.0
1545.320772	658.5999756
1545.835066	658.4000244
1546.349305	659.0
1546.863489	661.0
1547.37762	659.2000122
1547.891696	659.2000122
1548.405717	660.0
1548.919684	662.4000244
1549.433597	660.4000244
1549.947455	660.5999756
1550.461259	660.7999878
1550.975009	657.7999878
1551.488704	660.7999878
1552.002345	660.4000244
1552.515931	662.7999878
1553.029463	660.4000244
1553.542941	659.7999878
1554.056364	659.4000244
1554.569733	662.2000122
1555.083048	661.5999756
1555.596308	658.4000244
1556.109514	660.7999878
1556.622665	660.2000122
1557.135762	659.5999756
1557.648805	662.7999878
1558.161794	660.0
1558.674728	661.7999878
1559.187608	662.4000244
1559.700433	660.2000122
1560.213205	659.0
1560.725921	660.4000244
1561.238584	659.0
1561.751192	663.2000122
1562.263746	663.0
1562.776246	661.4000244
1563.288691	661.2000122
1563.801082	661.5999756
1564.313419	660.7999878
1564.825701	660.7999878
1565.337929	659.4000244
1565.850103	660.0
1566.362223	662.2000122
1566.874288	659.4000244
1567.386299	660.2000122
1567.898256	661.0
1568.410158	659.5999756
1568.922007	661.2000122
1569.4338	661.2000122
1569.94554	661.7999878
1570.457226	658.0
1570.968857	659.7999878
1571.480434	663.0
1571.991956	660.4000244
1572.503425	656.7999878
1573.014839	660.2000122
1573.526199	658.5999756
1574.037505	660.5999756
1574.548756	660.7999878
1575.059953	662.4000244
1575.571096	659.7999878
1576.082185	656.7999878
1576.59322	659.5999756
1577.1042	662.7999878
1577.615126	658.4000244
1578.125998	659.0
1578.636816	662.0
1579.14758	659.0
1579.658289	661.7999878
1580.168944	658.7999878
1580.679545	660.7999878
1581.190092	660.5999756
1581.700585	659.0
1582.211023	661.7999878
1582.721407	660.7999878
1583.231737	659.5999756
1583.742013	659.5999756
1584.252235	658.5999756
1584.762403	659.0
1585.272516	661.0
1585.782575	657.2000122
1586.292581	658.0
1586.802532	656.5999756
1587.312428	659.4000244
1587.822271	658.2000122
1588.33206	660.7999878
1588.841794	656.5999756
1589.351474	659.4000244
1589.8611	659.2000122
1590.370672	659.4000244
1590.88019	657.4000244
1591.389654	659.7999878
1591.899064	658.5999756
1592.408419	656.7999878
