1042.452273	692.0
1043.018714	693.7999878
1043.585098	696.0
1044.151424	695.2000122
1044.717692	688.5999756
1045.283903	690.5999756
1045.850056	690.2000122
1046.416151	689.5999756
1046.982188	691.0
1047.548167	692.5999756
1048.114089	692.0
1048.679953	689.2000122
1049.24576	689.4000244
1049.811509	686.2000122
1050.3772	687.4000244
1050.942833	690.2000122
1051.508408	686.0
1052.073926	688.0
1052.639387	691.2000122
1053.204789	687.5999756
1053.770134	691.0
1054.335421	686.5999756
1054.900651	685.0
1055.465823	686.7999878
1056.030937	686.5999756
1056.595993	687.4000244
1057.160992	686.0
1057.725934	682.2000122
1058.290817	690.2000122
1058.855643	686.4000244
1059.420411	684.0
1059.985122	690.2000122
1060.549775	685.2000122
1061.114371	685.0
1061.678908	685.2000122
1062.243389	682.0
1062.807811	689.4000244
1063.372176	689.2000122
1063.936483	684.2000122
1064.500733	685.7999878
1065.064925	689.0
1065.62906	689.0
1066.193137	687.2000122
1066.757156	684.2000122
1067.321118	687.2000122
1067.885022	682.7999878
1068.448869	689.5999756
1069.012658	686.5999756
1069.57639	686.7999878
1070.140063	689.0
1070.70368	683.5999756
1071.267239	684.0
1071.83074	685.2000122
1072.394184	681.7999878
1072.95757	684.4000244
1073.520899	681.7999878
1074.08417	681.5999756
1074.647383	684.2000122
1075.21054	685.5999756
1075.773638	683.4000244
1076.336679	685.7999878
1076.899663	681.2000122
1077.462589	687.2000122
1078.025457	683.5999756
1078.588268	683.5999756
1079.151022	682.2000122
1079.713718	692.0
1080.276356	682.7999878
1080.838937	684.4000244
1081.401461	684.5999756
1081.963927	683.0
1082.526336	688.7999878
1083.088687	683.7999878
1083.650981	685.5999756
1084.213217	682.4000244
1084.775396	683.0
1085.337517	682.5999756
1085.899581	683.5999756
1086.461587	681.4000244
1087.023536	683.5999756
1087.585428	682.7999878
1088.147262	681.5999756
1088.709039	684.2000122
1089.270758	684.0
1089.83242	681.4000244
1090.394024	684.5999756
1090.955571	683.7999878
1091.517061	683.7999878
1092.078493	684.0
1092.639868	683.4000244
1093.201185	683.0
1093.762445	683.4000244
1094.323648	682.2000122
1094.884793	679.0
1095.445881	683.0
1096.006911	683.5999756
1096.567884	683.0
1097.1288	684.4000244
1097.689659	685.2000122
1098.25046	680.4000244
1098.811203	684.4000244
1099.37189	682.0
1099.932518	684.5999756
1100.49309	683.2000122
1101.053604	682.2000122
1101.614061	686.4000244
1102.174461	682.7999878
1102.734803	682.5999756
1103.295088	685.0
1103.855316	685.0
1104.415486	685.2000122
1104.975599	687.0
1105.535655	684.5999756
1106.095653	682.7999878
1106.655594	685.2000122
1107.215478	681.4000244
1107.775305	683.2000122
1108.335074	685.4000244
1108.894786	680.7999878
1109.45444	682.7999878
1110.014038	684.4000244
1110.573578	684.7999878
1111.133061	684.7999878
1111.692486	682.7999878
1112.251854	683.5999756
1112.811165	682.2000122
1113.370419	683.4000244
1113.929616	680.5999756
1114.488755	683.7999878
1115.047837	684.5999756
1115.606862	680.7999878
1116.16583	683.0
1116.72474	682.0
1117.283593	684.0
1117.842389	681.5999756
1118.401128	679.0
1118.959809	682.2000122
1119.518433	680.7999878
1120.077	682.5999756
1120.63551	684.5999756
1121.193963	684.4000244
1121.752358	681.4000244
1122.310697	682.7999878
1122.868978	684.7999878
1123.427202	684.7999878
1123.985368	683.2000122
1124.543478	684.2000122
1125.10153	684.4000244
1125.659526	684.2000122
1126.217464	683.0
1126.775345	681.5999756
1127.333168	683.7999878
1127.890935	687.2000122
1128.448644	689.7999878
1129.006297	686.7999878
1129.563892	688.2000122
1130.12143	688.2000122
1130.678911	681.5999756
1131.236335	686.0
1131.793701	683.4000244
1132.351011	685.5999756
1132.908263	680.4000244
1133.465458	686.7999878
1134.022597	685.7999878
1134.579678	679.2000122
1135.136702	682.2000122
1135.693669	681.5999756
1136.250578	684.7999878
1136.807431	681.0
1137.364227	684.5999756
1137.920965	683.0
1138.477647	686.4000244
1139.034271	684.4000244
1139.590839	681.7999878
1140.147349	681.4000244
1140.703802	682.0
1141.260198	683.7999878
1141.816537	683.2000122
1142.37282	682.5999756
1142.929045	686.7999878
1143.485213	693.0
1144.041323	692.2000122
1144.597377	687.5999756
1145.153374	683.0
1145.709314	685.0
1146.265197	681.7999878
1146.821023	688.5999756
1147.376792	698.5999756
1147.932503	698.4000244
1148.488158	692.2000122
1149.043756	691.7999878
1149.599297	698.5999756
1150.154781	740.2000122
1150.710207	815.7999878
1151.265577	771.2000122
1151.82089	711.5999756
1152.376146	691.4000244
1152.931345	691.4000244
1153.486487	684.5999756
1154.041572	686.7999878
1154.5966	685.5999756
1155.151571	683.7999878
1155.706485	677.5999756
1156.261342	681.7999878
1156.816142	685.2000122
1157.370885	681.5999756
1157.925572	687.2000122
1158.480201	685.2000122
1159.034774	683.2000122
1159.589289	689.0
1160.143748	686.2000122
1160.698149	685.7999878
1161.252494	681.2000122
1161.806782	684.0
1162.361013	684.5999756
1162.915187	685.4000244
1163.469304	683.7999878
1164.023364	683.7999878
1164.577368	685.4000244
1165.131314	680.0
1165.685204	682.4000244
1166.239036	681.5999756
1166.792812	679.7999878
1167.346531	682.4000244
1167.900193	679.4000244
1168.453798	683.0
1169.007347	683.4000244
1169.560838	681.7999878
1170.114273	682.2000122
1170.66765	685.4000244
1171.220971	684.4000244
1171.774235	682.7999878
1172.327443	685.0
1172.880593	681.5999756
1173.433687	682.7999878
1173.986723	681.2000122
1174.539703	686.4000244
1175.092626	684.4000244
1175.645493	682.7999878
1176.198302	682.4000244
1176.751055	682.2000122
1177.303751	681.7999878
1177.85639	684.2000122
1178.408972	683.7999878
1178.961498	679.2000122
1179.513966	681.4000244
1180.066378	680.4000244
1180.618733	681.2000122
1181.171032	682.4000244
1181.723273	683.2000122
1182.275458	683.0
1182.827586	681.2000122
1183.379657	681.4000244
1183.931672	681.4000244
1184.48363	680.2000122
1185.035531	679.4000244
1185.587375	680.5999756
1186.139162	681.2000122
1186.690893	682.5999756
1187.242567	684.5999756
1187.794184	681.4000244
1188.345745	681.0
1188.897249	678.5999756
1189.448696	684.7999878
1190.000086	680.7999878
1190.55142	684.0
1191.102697	678.5999756
1191.653918	682.4000244
1192.205081	680.5999756
1192.756188	679.2000122
1193.858232	680.0
1194.409169	682.5999756
1194.960049	682.7999878
1195.510872	681.4000244
1196.061639	680.7999878
1196.612349	684.0
1197.163003	682.0
1197.713599	680.5999756
1198.264139	680.7999878
1198.814623	679.7999878
1199.36505	680.5999756
1199.91542	684.5999756
1200.465734	676.4000244
1201.01599	682.0
1201.566191	683.7999878
1202.116334	680.2000122
1202.666421	681.7999878
1203.216452	681.7999878
1203.766425	682.2000122
1204.316343	682.7999878
1204.866203	679.2000122
1205.416007	681.2000122
1205.965754	683.0
1206.515445	678.4000244
1207.065079	682.4000244
1207.614657	681.0
1208.164177	683.4000244
1208.713642	683.2000122
1209.26305	681.5999756
1209.812401	680.0
1210.361695	685.0
1210.910933	683.2000122
1211.460115	684.2000122
1212.00924	679.7999878
1212.558308	684.4000244
1213.10732	680.4000244
1213.656275	683.2000122
1214.205174	682.7999878
1214.754016	685.2000122
1215.302801	680.2000122
1215.85153	678.4000244
1216.400203	682.2000122
1216.948819	683.2000122
1217.497378	678.2000122
1218.045881	683.0
1218.594327	684.7999878
1219.142717	683.7999878
1219.691051	680.4000244
1220.239327	683.2000122
1220.787548	681.4000244
1221.335712	684.4000244
1221.883819	680.0
1222.43187	681.4000244
1222.979864	684.0
1223.527802	680.2000122
1224.075683	686.2000122
1224.623508	683.0
1225.171277	683.0
1225.718989	683.4000244
1226.266644	681.0
1226.814243	678.0
1227.361786	680.7999878
1227.909272	680.5999756
1228.456702	682.4000244
1229.004075	682.0
1229.551392	681.0
1230.098652	681.4000244
1230.645856	678.5999756
1231.193003	679.0
1231.740094	683.4000244
1232.287129	683.4000244
1232.834107	681.4000244
1233.381029	684.5999756
1233.927894	684.0
1234.474703	684.4000244
1235.021455	681.4000244
1235.568151	680.7999878
1236.114791	684.5999756
1236.661374	682.7999878
1237.207901	684.2000122
1237.754372	680.7999878
1238.300786	683.7999878
1238.847144	685.4000244
1239.393445	679.2000122
1239.93969	680.0
1240.485879	680.0
1241.032011	683.4000244
1241.578087	683.7999878
1242.124106	682.5999756
1242.67007	680.0
1243.215976	682.5999756
1243.761827	680.4000244
1244.307621	682.2000122
1244.853359	683.7999878
1245.39904	684.0
1245.944665	683.5999756
1246.490234	679.0
1247.035746	683.5999756
1247.581203	681.5999756
1248.126602	680.0
1248.671946	684.2000122
1249.217233	683.0
1249.762464	684.2000122
1250.307638	683.5999756
1250.852757	681.4000244
1251.397819	684.2000122
1251.942824	682.5999756
1252.487774	680.2000122
1253.032667	680.0
1253.577503	684.4000244
1254.122284	677.7999878
1254.667008	683.5999756
1255.211676	680.0
1255.756288	684.0
1256.300843	685.2000122
1256.845342	679.5999756
1257.389785	681.2000122
1257.934172	681.2000122
1258.478502	681.2000122
1259.022776	683.5999756
1259.566994	687.2000122
1260.111156	694.2000122
1260.655261	680.4000244
1261.199311	678.4000244
1261.743304	688.5999756
1262.28724	683.4000244
1262.831121	689.7999878
1263.374945	684.0
1263.918713	692.2000122
1264.462425	700.2000122
1265.006081	727.4000244
1265.54968	726.2000122
1266.093223	705.0
1266.636711	694.4000244
1267.180141	687.5999756
1267.723516	684.2000122
1268.266835	685.5999756
1268.810097	686.4000244
1269.353303	683.0
1269.896453	682.5999756
1270.439547	683.0
1270.982584	683.4000244
1271.525566	681.7999878
1272.068491	685.5999756
1272.61136	682.4000244
1273.154173	683.5999756
1273.69693	684.7999878
1274.239631	681.7999878
1274.782275	681.0
1275.324864	685.5999756
1275.867396	681.4000244
1276.409872	683.2000122
1276.952292	681.7999878
1277.494656	681.2000122
1278.036964	683.0
1278.579215	684.5999756
1279.121411	685.4000244
1279.66355	683.4000244
1280.205634	682.0
1280.747661	685.7999878
1281.289632	685.5999756
1281.831547	690.7999878
1282.373406	690.0
1282.915209	693.4000244
1283.456955	705.2000122
1283.998646	737.0
1284.540281	827.0
1285.081859	1112.800049
1285.623381	1388.199951
1286.164848	1018.599976
1286.706258	770.2000122
1287.247612	715.0
1287.788911	700.0
1288.330153	694.5999756
1288.871339	691.2000122
1289.412469	684.5999756
1289.953543	684.2000122
1290.494561	684.7999878
1291.035523	682.7999878
1291.576428	683.5999756
1292.117278	685.7999878
1292.658072	683.7999878
1293.19881	684.2000122
1293.739492	680.4000244
1294.280118	683.4000244
1294.820687	684.7999878
1295.361201	682.0
1295.901659	677.7999878
1296.442061	684.5999756
1296.982406	681.7999878
1297.522696	684.7999878
1298.06293	681.2000122
1298.603108	680.7999878
1299.143229	680.4000244
1299.683295	680.4000244
1300.223305	683.2000122
1300.763259	678.2000122
1301.303157	682.7999878
1301.842999	679.2000122
1302.382785	679.4000244
1302.922515	684.0
1303.462189	681.2000122
1304.001807	677.5999756
1304.541369	683.5999756
1305.080875	683.4000244
1305.620326	679.7999878
1306.15972	684.5999756
1306.699058	683.4000244
1307.238341	679.2000122
1307.777567	680.2000122
1308.316738	681.7999878
1308.855853	680.0
1309.394912	683.0
1309.933915	681.4000244
1310.472862	683.0
1311.011753	682.7999878
1311.550588	681.0
1312.089367	680.7999878
1312.62809	680.2000122
1313.166758	681.5999756
1313.70537	681.2000122
1314.243925	679.5999756
1314.782425	684.0
1315.320869	680.4000244
1315.859257	680.2000122
1316.397589	680.4000244
1316.935866	680.4000244
1317.474086	681.0
1318.012251	683.0
1318.55036	683.0
1319.088413	681.2000122
1319.62641	680.0
1320.164351	681.4000244
1320.702236	677.5999756
1321.240066	681.7999878
1321.777839	683.7999878
1322.315557	681.7999878
1322.853219	680.5999756
1323.390826	676.4000244
1323.928376	685.0
1324.465871	684.0
1325.003309	682.0
1325.540692	683.4000244
1326.07802	682.7999878
1326.615291	680.0
1327.152506	681.4000244
1327.689666	680.5999756
1328.22677	680.7999878
1328.763818	680.7999878
1329.300811	681.7999878
1329.837747	683.2000122
1330.374628	677.7999878
1330.911453	680.7999878
1331.448222	678.5999756
1331.984936	682.2000122
1332.521594	683.0
1333.058196	683.0
1333.594742	681.4000244
1334.131232	681.2000122
1334.667667	680.7999878
1335.204046	680.2000122
1335.740369	679.7999878
1336.276637	679.5999756
1336.812848	678.0
1337.349004	680.4000244
1337.885105	683.5999756
1338.421149	682.5999756
1338.957138	681.7999878
1339.493071	680.0
1340.028949	681.7999878
1340.56477	680.2000122
1341.100536	680.5999756
1341.636246	683.4000244
1342.171901	678.4000244
1342.7075	679.2000122
1343.243043	685.4000244
1343.77853	677.7999878
1344.313962	682.0
1344.849338	680.4000244
1345.384659	681.5999756
1345.919923	680.2000122
1346.455133	683.5999756
1346.990286	679.4000244
1347.525384	677.4000244
1348.060426	683.2000122
1348.595412	679.2000122
1349.130343	679.2000122
1349.665218	679.4000244
1350.200037	680.2000122
1350.734801	682.0
1351.269509	680.5999756
1351.804162	678.0
1352.338758	678.2000122
1352.8733	680.2000122
1353.407785	683.0
1353.942215	677.7999878
1354.476589	680.5999756
1355.010908	678.4000244
1355.545171	681.4000244
1356.079379	679.2000122
1356.61353	680.4000244
1357.147627	680.2000122
1357.681667	679.4000244
1358.215652	679.4000244
1358.749582	682.0
1359.283456	680.2000122
1359.817274	683.7999878
1360.351037	681.4000244
1360.884744	683.0
1361.418395	676.2000122
1361.951991	683.5999756
1362.485531	681.2000122
1363.019016	682.0
1363.552445	682.0
1364.085819	682.0
1364.619137	681.7999878
1365.1524	683.0
1365.685607	681.0
1366.218758	683.0
1366.751854	684.5999756
1367.284894	684.5999756
1367.817879	682.2000122
1368.350808	678.4000244
1368.883682	677.2000122
1369.4165	682.5999756
1369.949263	685.2000122
1370.48197	703.5999756
1371.014622	690.7999878
1371.547218	680.5999756
1372.079758	681.5999756
1372.612244	680.5999756
1373.144673	681.0
1373.677047	679.7999878
1374.209366	681.7999878
1374.741629	680.5999756
1375.273836	680.2000122
1375.805989	680.5999756
1376.338085	685.4000244
1376.870126	683.0
1377.402112	682.0
1377.934042	682.2000122
1378.465917	681.5999756
1378.997736	683.5999756
1379.5295	679.7999878
1380.061208	688.0
1380.592861	682.0
1381.124459	687.7999878
1381.656	682.7999878
1382.187487	685.4000244
1382.718918	681.5999756
1383.250294	685.4000244
1383.781614	684.2000122
1384.312879	684.5999756
1384.844088	687.7999878
1385.375242	693.4000244
1385.90634	696.2000122
1386.437383	703.0
1386.968371	717.5999756
1387.499303	761.5999756
1388.03018	953.7999878
1388.561001	1704.199951
1389.091767	1786.0
1389.622478	982.0
1390.153133	761.2000122
1390.683733	712.5999756
1391.214277	696.4000244
1391.744766	693.0
1392.2752	689.5999756
1392.805578	689.0
1393.335901	683.0
1393.866168	688.0
1394.396381	682.2000122
1394.926537	686.0
1395.456639	683.2000122
1395.986685	682.7999878
1396.516675	682.5999756
1397.046611	685.2000122
1397.576491	681.5999756
1398.106315	682.5999756
1398.636084	680.4000244
1399.165798	682.2000122
1399.695457	680.4000244
1400.22506	677.4000244
1400.754608	680.2000122
1401.284101	684.4000244
1401.813538	679.7999878
1402.34292	680.2000122
1402.872247	678.4000244
1403.401518	682.2000122
1403.930734	682.2000122
1404.459895	678.0
1404.989	681.0
1405.51805	683.2000122
1406.047045	680.7999878
1406.575984	686.2000122
1407.104869	681.7999878
1407.633697	684.0
1408.162471	686.4000244
1408.691189	694.4000244
1409.219852	708.0
1409.74846	742.5999756
1410.277013	769.5999756
1410.80551	731.5999756
1411.333952	695.5999756
1411.862339	688.2000122
1412.39067	683.0
1412.918946	683.0
1413.447167	683.2000122
1413.975333	680.0
1414.503444	680.2000122
1415.031499	681.4000244
1415.559499	686.5999756
1416.087444	680.2000122
1416.615333	684.4000244
1417.143167	678.2000122
1417.670947	679.0
1418.19867	679.7999878
1418.726339	680.0
1419.253952	677.0
1419.781511	678.5999756
1420.309014	681.0
1420.836461	678.7999878
1421.363854	680.5999756
1421.891191	681.2000122
1422.418474	676.5999756
1422.945701	677.7999878
1423.472872	678.5999756
1423.999989	680.5999756
1424.52705	680.0
1425.054057	681.2000122
1425.581008	681.0
1426.107904	680.0
1426.634745	681.0
1427.16153	679.4000244
1427.688261	679.7999878
1428.214936	677.5999756
1428.741556	678.7999878
1429.268121	677.5999756
1429.794631	676.4000244
1430.321085	680.7999878
1430.847485	679.0
1431.373829	676.4000244
1431.900118	676.7999878
1432.426353	678.5999756
1432.952532	675.7999878
1433.478655	682.2000122
1434.004724	676.4000244
1434.530738	678.4000244
1435.056696	676.7999878
1435.5826	677.2000122
1436.108448	678.0
1436.634241	680.7999878
1437.159979	674.4000244
1437.685662	674.0
1438.21129	681.0
1438.736863	679.4000244
1439.262381	676.5999756
1439.787843	678.2000122
1440.313251	677.7999878
1440.838603	677.2000122
1441.3639	678.4000244
1441.889143	676.5999756
1442.41433	676.5999756
1442.939462	674.7999878
1443.464539	674.7999878
1443.989561	674.4000244
1444.514528	676.0
1445.03944	679.5999756
1445.564297	678.2000122
1446.089099	674.5999756
1446.613846	677.0
1447.138537	677.0
1447.663174	676.4000244
1448.187756	679.0
1448.712282	676.0
1449.236754	676.4000244
1449.761171	678.5999756
1450.285532	677.5999756
1450.809839	678.5999756
1451.33409	676.0
1451.858287	675.2000122
1452.382428	676.5999756
1452.906515	675.5999756
1453.430546	677.7999878
1453.954523	677.0
1454.478444	679.7999878
1455.002311	676.7999878
1455.526123	677.4000244
1456.049879	677.5999756
1456.573581	675.5999756
1457.097227	675.0
1457.620819	675.5999756
1458.144356	675.5999756
1458.667837	677.5999756
1459.191264	675.0
1459.714636	676.2000122
1460.237952	672.5999756
1460.761214	674.4000244
1461.284421	676.0
1461.807573	676.2000122
1462.33067	673.5999756
1462.853712	680.2000122
1463.376699	677.0
1463.899632	676.7999878
1464.422509	677.2000122
1464.945331	675.7999878
1465.468099	677.5999756
1465.990811	678.2000122
1466.513469	676.2000122
1467.036071	673.7999878
1467.558619	675.5999756
1468.081112	674.4000244
1468.60355	677.7999878
1469.125933	676.7999878
1469.648261	679.4000244
1470.170534	676.5999756
1470.692752	671.5999756
1471.214916	675.5999756
1471.737024	677.7999878
1472.259078	678.2000122
1472.781077	676.0
1473.303021	677.2000122
1473.82491	675.0
1474.346744	677.4000244
1474.868523	670.5999756
1475.390248	677.7999878
1475.911917	674.0
1476.433532	677.5999756
1476.955092	675.2000122
1477.476597	675.7999878
1477.998047	677.2000122
1478.519442	674.4000244
1479.040783	674.5999756
1479.562068	676.5999756
1480.083299	676.7999878
1480.604475	672.4000244
1481.125596	677.2000122
1481.646663	674.7999878
1482.167674	674.4000244
1482.688631	675.4000244
1483.209533	673.7999878
1483.73038	673.4000244
1484.251172	673.4000244
1484.771909	672.5999756
1485.292592	676.0
1485.81322	677.0
1486.333793	672.2000122
1486.854311	674.7999878
1487.374775	675.5999756
1487.895183	677.5999756
1488.415537	675.7999878
1488.935836	677.2000122
1489.456081	674.7999878
1489.97627	674.7999878
1490.496405	675.4000244
1491.016485	675.0
1491.536511	675.0
1492.056481	676.5999756
1492.576397	672.5999756
1493.096258	679.0
1493.616064	674.0
1494.135816	676.2000122
1494.655513	673.7999878
1495.175155	676.5999756
1495.694742	674.5999756
1496.214274	674.2000122
1496.733752	674.5999756
1497.253175	677.2000122
1497.772544	670.7999878
1498.291858	673.4000244
1498.811116	674.2000122
1499.330321	677.0
1499.84947	680.4000244
1500.368565	674.7999878
1500.887605	672.4000244
1501.406591	674.0
1501.925521	675.5999756
1502.444397	679.0
1502.963219	675.7999878
1503.481985	674.4000244
1504.000697	676.7999878
1504.519355	676.2000122
1505.037957	672.2000122
1505.556505	673.0
1506.074999	675.4000244
1506.593437	670.4000244
1507.111821	673.7999878
1507.63015	676.4000244
1508.148425	672.7999878
1508.666645	674.4000244
1509.18481	674.7999878
1509.702921	674.5999756
1510.220977	672.2000122
1510.738979	679.7999878
1511.256925	673.0
1511.774817	676.5999756
1512.292655	677.7999878
1512.810438	675.4000244
1513.328166	678.0
1513.84584	671.0
1514.363459	675.0
1514.881023	673.4000244
1515.398533	675.4000244
1515.915988	674.7999878
1516.433389	673.7999878
1516.950734	671.7999878
1517.468026	673.5999756
1517.985263	675.0
1518.502445	675.4000244
1519.019572	675.0
1519.536645	675.2000122
1520.053664	673.7999878
1520.570628	673.7999878
1521.087537	676.2000122
1521.604392	674.4000244
1522.121192	673.0
1522.637937	673.0
1523.154628	675.4000244
1523.671265	673.5999756
1524.187847	674.2000122
1524.704374	671.4000244
1525.220847	671.4000244
1525.737265	673.5999756
1526.253629	673.5999756
1526.769938	674.4000244
1527.286192	675.4000244
1527.802392	675.4000244
1528.318538	676.2000122
1528.834629	677.5999756
1529.350666	674.0
1529.866648	672.7999878
1530.382575	676.7999878
1530.898448	675.0
1531.414266	675.2000122
1531.93003	674.4000244
1532.44574	674.0
1532.961395	675.5999756
1533.476995	673.2000122
1533.992541	673.0
1534.508033	673.2000122
1535.02347	671.7999878
1535.538852	675.7999878
1536.05418	674.5999756
1536.569454	673.4000244
1537.084673	672.5999756
1537.599837	673.5999756
1538.114947	676.5999756
1538.630003	675.2000122
1539.145004	673.0
1539.659951	674.7999878
1540.174843	674.7999878
1540.689681	675.0
1541.204465	674.2000122
1541.719194	672.4000244
1542.233868	674.2000122
1542.748488	674.0
1543.263054	675.7999878
1543.777565	674.0
1544.292022	671.5999756
1544.806424	673.4000244
1545.320772	672.5999756
1545.835066	675.7999878
1546.349305	672.4000244
1546.863489	674.5999756
1547.37762	678.5999756
1547.891696	672.0
1548.405717	677.4000244
1548.919684	674.0
1549.433597	673.7999878
1549.947455	672.5999756
1550.461259	674.5999756
1550.975009	673.7999878
1551.488704	672.7999878
1552.002345	670.4000244
1552.515931	675.2000122
1553.029463	670.5999756
1553.542941	669.7999878
1554.056364	675.7999878
1554.569733	672.5999756
1555.083048	675.0
1555.596308	671.4000244
1556.109514	672.2000122
1556.622665	672.2000122
1557.135762	673.5999756
1557.648805	675.7999878
1558.161794	674.4000244
1558.674728	677.0
1559.187608	674.4000244
1559.700433	675.0
1560.213205	674.4000244
1560.725921	674.4000244
1561.238584	675.0
1561.751192	672.7999878
1562.263746	675.0
1562.776246	674.4000244
1563.288691	672.4000244
1563.801082	672.2000122
1564.313419	677.7999878
1564.825701	673.0
1565.337929	672.5999756
1565.850103	672.7999878
1566.362223	671.2000122
1566.874288	672.0
1567.386299	673.2000122
1567.898256	675.7999878
1568.410158	673.2000122
1568.922007	672.5999756
1569.4338	673.5999756
1569.94554	676.4000244
1570.457226	670.0
1570.968857	671.7999878
1571.480434	674.5999756
1571.991956	672.0
1572.503425	675.0
1573.014839	673.4000244
1573.526199	673.5999756
1574.037505	672.4000244
1574.548756	671.2000122
1575.059953	674.4000244
1575.571096	675.7999878
1576.082185	673.7999878
1576.59322	674.7999878
1577.1042	670.7999878
1577.615126	674.7999878
1578.125998	674.4000244
1578.636816	670.7999878
1579.14758	674.2000122
1579.658289	675.5999756
1580.168944	674.4000244
1580.679545	672.7999878
1581.190092	670.2000122
1581.700585	670.7999878
1582.211023	674.0
1582.721407	673.2000122
1583.231737	671.0
1583.742013	673.5999756
1584.252235	671.2000122
1584.762403	672.0
1585.272516	673.4000244
1585.782575	672.5999756
1586.292581	673.7999878
1586.802532	673.4000244
1587.312428	672.7999878
1587.822271	673.7999878
1588.33206	670.7999878
1588.841794	673.7999878
1589.351474	674.2000122
1589.8611	671.0
1590.370672	675.2000122
1590.88019	674.0
1591.389654	672.4000244
1591.899064	674.2000122
1592.408419	675.2000122
