1042.452273	1643.199951
1043.018714	1675.199951
1043.585098	1638.599976
1044.151424	1656.400024
1044.717692	1643.0
1045.283903	1633.199951
1045.850056	1650.0
1046.416151	1644.800049
1046.982188	1646.199951
1047.548167	1646.599976
1048.114089	1635.800049
1048.679953	1644.199951
1049.24576	1634.400024
1049.811509	1645.400024
1050.3772	1627.199951
1050.942833	1625.800049
1051.508408	1652.0
1052.073926	1617.0
1052.639387	1646.0
1053.204789	1643.400024
1053.770134	1640.199951
1054.335421	1614.599976
1054.900651	1641.400024
1055.465823	1631.599976
1056.030937	1632.599976
1056.595993	1627.400024
1057.160992	1623.199951
1057.725934	1618.199951
1058.290817	1628.800049
1058.855643	1622.400024
1059.420411	1635.400024
1059.985122	1611.599976
1060.549775	1623.800049
1061.114371	1616.800049
1061.678908	1616.400024
1062.243389	1640.199951
1062.807811	1618.800049
1063.372176	1616.800049
1063.936483	1616.400024
1064.500733	1605.400024
1065.064925	1623.800049
1065.62906	1631.199951
1066.193137	1616.599976
1066.757156	1607.0
1067.321118	1606.400024
1067.885022	1627.0
1068.448869	1613.400024
1069.012658	1619.0
1069.57639	1624.400024
1070.140063	1616.400024
1070.70368	1619.400024
1071.267239	1616.0
1071.83074	1625.400024
1072.394184	1609.599976
1072.95757	1604.800049
1073.520899	1620.800049
1074.08417	1618.0
1074.647383	1597.400024
1075.21054	1608.0
1075.773638	1600.400024
1076.336679	1608.800049
1076.899663	1596.599976
1077.462589	1622.199951
1078.025457	1593.199951
1078.588268	1604.400024
1079.151022	1605.400024
1079.713718	1610.800049
1080.276356	1603.0
1080.838937	1578.400024
1081.401461	1582.199951
1081.963927	1595.400024
1082.526336	1595.0
1083.088687	1593.599976
1083.650981	1580.800049
1084.213217	1582.199951
1084.775396	1582.0
1085.337517	1599.199951
1085.899581	1579.199951
1086.461587	1592.199951
1087.023536	1583.400024
1087.585428	1574.800049
1088.147262	1589.0
1088.709039	1584.800049
1089.270758	1570.0
1089.83242	1576.599976
1090.394024	1578.0
1090.955571	1591.199951
1091.517061	1581.400024
1092.078493	1582.0
1092.639868	1570.0
1093.201185	1578.400024
1093.762445	1566.199951
1094.323648	1577.0
1094.884793	1554.599976
1095.445881	1582.199951
1096.006911	1562.199951
1096.567884	1563.0
1097.1288	1580.599976
1097.689659	1568.0
1098.25046	1579.0
1098.811203	1569.199951
1099.37189	1564.400024
1099.932518	1571.400024
1100.49309	1558.800049
1101.053604	1573.0
1101.614061	1550.599976
1102.174461	1575.800049
1102.734803	1542.800049
1103.295088	1571.0
1103.855316	1559.400024
1104.415486	1583.0
1104.975599	1553.0
1105.535655	1561.0
1106.095653	1529.400024
1106.655594	1543.0
1107.215478	1545.800049
1107.775305	1546.599976
1108.335074	1553.800049
1108.894786	1543.400024
1109.45444	1541.199951
1110.014038	1567.599976
1110.573578	1545.199951
1111.133061	1529.400024
1111.692486	1530.599976
1112.251854	1539.0
1112.811165	1539.0
1113.370419	1538.0
1113.929616	1539.599976
1114.488755	1543.599976
1115.047837	1549.400024
1115.606862	1565.0
1116.16583	1539.400024
1116.72474	1560.400024
1117.283593	1540.0
1117.842389	1540.400024
1118.401128	1539.400024
1118.959809	1538.199951
1119.518433	1529.800049
1120.077	1557.199951
1120.63551	1531.400024
1121.193963	1541.0
1121.752358	1534.199951
1122.310697	1555.599976
1122.868978	1542.199951
1123.427202	1563.599976
1123.985368	1535.800049
1124.543478	1554.199951
1125.10153	1535.800049
1125.659526	1535.400024
1126.217464	1528.800049
1126.775345	1527.0
1127.333168	1519.400024
1127.890935	1538.599976
1128.448644	1532.599976
1129.006297	1540.599976
1129.563892	1539.199951
1130.12143	1532.800049
1130.678911	1515.400024
1131.236335	1525.599976
1131.793701	1534.800049
1132.351011	1523.800049
1132.908263	1532.800049
1133.465458	1520.800049
1134.022597	1520.199951
1134.579678	1533.599976
1135.136702	1538.199951
1135.693669	1512.800049
1136.250578	1538.599976
1136.807431	1520.400024
1137.364227	1521.800049
1137.920965	1521.0
1138.477647	1524.0
1139.034271	1542.0
1139.590839	1523.0
1140.147349	1529.199951
1140.703802	1533.199951
1141.260198	1532.0
1141.816537	1524.199951
1142.37282	1545.599976
1142.929045	1560.400024
1143.485213	1570.599976
1144.041323	1549.199951
1144.597377	1535.0
1145.153374	1516.199951
1145.709314	1532.599976
1146.265197	1552.400024
1146.821023	1595.199951
1147.376792	1609.400024
1147.932503	1565.199951
1148.488158	1568.800049
1149.043756	1589.0
1149.599297	1721.0
1150.154781	2139.199951
1150.710207	2131.800049
1151.265577	1702.199951
1151.82089	1574.800049
1152.376146	1522.800049
1152.931345	1539.599976
1153.486487	1529.0
1154.041572	1530.0
1154.5966	1529.199951
1155.151571	1532.400024
1155.706485	1524.400024
1156.261342	1522.0
1156.816142	1511.800049
1157.370885	1527.400024
1157.925572	1519.599976
1158.480201	1509.0
1159.034774	1514.800049
1159.589289	1522.400024
1160.143748	1513.800049
1160.698149	1514.199951
1161.252494	1522.400024
1161.806782	1529.400024
1162.361013	1525.199951
1162.915187	1525.800049
1163.469304	1517.800049
1164.023364	1516.599976
1164.577368	1509.599976
1165.131314	1516.800049
1165.685204	1515.800049
1166.239036	1513.0
1166.792812	1516.199951
1167.346531	1520.599976
1167.900193	1506.599976
1168.453798	1504.400024
1169.007347	1516.199951
1169.560838	1509.400024
1170.114273	1520.199951
1170.66765	1515.199951
1171.220971	1504.800049
1171.774235	1509.599976
1172.327443	1507.400024
1172.880593	1507.599976
1173.433687	1497.800049
1173.986723	1506.199951
1174.539703	1506.0
1175.092626	1506.0
1175.645493	1503.199951
1176.198302	1525.599976
1176.751055	1497.400024
1177.303751	1501.400024
1177.85639	1500.199951
1178.408972	1498.0
1178.961498	1502.400024
1179.513966	1504.199951
1180.066378	1499.599976
1180.618733	1508.400024
1181.171032	1481.400024
1181.723273	1484.599976
1182.275458	1502.800049
1182.827586	1510.400024
1183.379657	1501.199951
1183.931672	1497.400024
1184.48363	1492.599976
1185.035531	1481.599976
1185.587375	1508.599976
1186.139162	1493.400024
1186.690893	1508.599976
1187.242567	1504.599976
1187.794184	1494.599976
1188.345745	1482.599976
1188.897249	1501.800049
1189.448696	1484.199951
1190.000086	1489.599976
1190.55142	1494.599976
1191.102697	1498.599976
1191.653918	1480.400024
1192.205081	1492.0
1192.756188	1496.800049
1193.307238	1483.0
1193.858232	1489.800049
1194.409169	1497.599976
1194.960049	1490.800049
1195.510872	1483.0
1196.061639	1484.599976
1196.612349	1484.199951
1197.163003	1476.599976
1197.713599	1481.400024
1198.264139	1484.599976
1198.814623	1484.199951
1199.36505	1462.0
1199.91542	1477.0
1200.465734	1484.800049
1201.01599	1479.599976
1201.566191	1485.0
1202.116334	1464.800049
1202.666421	1461.0
1203.216452	1488.0
1203.766425	1477.0
1204.316343	1463.800049
1204.866203	1455.599976
1205.416007	1461.800049
1205.965754	1473.599976
1206.515445	1460.800049
1207.065079	1466.0
1207.614657	1483.800049
1208.164177	1461.0
1208.713642	1474.400024
1209.26305	1486.0
1209.812401	1475.400024
1210.361695	1467.599976
1210.910933	1463.0
1211.460115	1471.0
1212.00924	1466.400024
1212.558308	1465.599976
1213.10732	1464.0
1213.656275	1455.0
1214.205174	1468.400024
1214.754016	1461.199951
1215.302801	1453.199951
1215.85153	1460.199951
1216.400203	1466.400024
1216.948819	1442.199951
1217.497378	1467.0
1218.045881	1467.800049
1218.594327	1452.599976
1219.142717	1449.800049
1219.691051	1453.199951
1220.239327	1457.400024
1220.787548	1443.599976
1221.335712	1478.599976
1221.883819	1459.599976
1222.43187	1456.199951
1222.979864	1451.199951
1223.527802	1459.199951
1224.075683	1459.0
1224.623508	1452.599976
1225.171277	1463.0
1225.718989	1449.0
1226.266644	1451.0
1226.814243	1459.400024
1227.361786	1457.400024
1227.909272	1449.599976
1228.456702	1457.199951
1229.004075	1454.400024
1229.551392	1434.599976
1230.098652	1461.800049
1230.645856	1442.199951
1231.193003	1460.400024
1231.740094	1451.800049
1232.287129	1452.0
1232.834107	1446.199951
1233.381029	1448.0
1233.927894	1450.800049
1234.474703	1455.199951
1235.021455	1448.400024
1235.568151	1453.599976
1236.114791	1461.599976
1236.661374	1460.800049
1237.207901	1446.199951
1237.754372	1431.0
1238.300786	1425.199951
1238.847144	1442.400024
1239.393445	1432.599976
1239.93969	1449.599976
1240.485879	1449.400024
1241.032011	1439.400024
1241.578087	1437.0
1242.124106	1438.0
1242.67007	1442.0
1243.215976	1447.599976
1243.761827	1446.599976
1244.307621	1449.599976
1244.853359	1434.0
1245.39904	1426.0
1245.944665	1435.0
1246.490234	1446.599976
1247.035746	1448.599976
1247.581203	1427.199951
1248.126602	1441.599976
1248.671946	1433.400024
1249.217233	1433.199951
1249.762464	1441.199951
1250.307638	1459.199951
1250.852757	1443.800049
1251.397819	1435.199951
1251.942824	1428.400024
1252.487774	1435.199951
1253.032667	1442.599976
1253.577503	1436.0
1254.122284	1431.800049
1254.667008	1430.199951
1255.211676	1434.800049
1255.756288	1430.400024
1256.300843	1435.800049
1256.845342	1428.199951
1257.389785	1429.800049
1257.934172	1434.199951
1258.478502	1440.0
1259.022776	1452.199951
1259.566994	1439.400024
1260.111156	1450.400024
1260.655261	1435.0
1261.199311	1432.800049
1261.743304	1444.0
1262.28724	1454.800049
1262.831121	1464.199951
1263.374945	1472.199951
1263.918713	1522.599976
1264.462425	1561.800049
1265.006081	1572.400024
1265.54968	1510.400024
1266.093223	1474.400024
1266.636711	1444.599976
1267.180141	1447.599976
1267.723516	1439.800049
1268.266835	1444.0
1268.810097	1438.0
1269.353303	1437.0
1269.896453	1429.400024
1270.439547	1435.199951
1270.982584	1413.0
1271.525566	1436.400024
1272.068491	1427.599976
1272.61136	1423.199951
1273.154173	1435.0
1273.69693	1435.599976
1274.239631	1434.0
1274.782275	1423.599976
1275.324864	1419.599976
1275.867396	1428.400024
1276.409872	1431.400024
1276.952292	1423.400024
1277.494656	1438.0
1278.036964	1424.199951
1278.579215	1431.800049
1279.121411	1430.0
1279.66355	1435.199951
1280.205634	1433.0
1280.747661	1444.800049
1281.289632	1452.199951
1281.831547	1458.199951
1282.373406	1498.199951
1282.915209	1558.0
1283.456955	1719.800049
1283.998646	2094.0
1284.540281	2977.600098
1285.081859	3688.0
1285.623381	2639.199951
1286.164848	1818.199951
1286.706258	1569.599976
1287.247612	1489.400024
1287.788911	1453.800049
1288.330153	1441.400024
1288.871339	1431.400024
1289.412469	1416.800049
1289.953543	1437.800049
1290.494561	1415.0
1291.035523	1424.599976
1291.576428	1413.800049
1292.117278	1427.599976
1292.658072	1400.0
1293.19881	1416.599976
1293.739492	1403.599976
1294.280118	1415.400024
1294.820687	1422.400024
1295.361201	1393.599976
1295.901659	1397.400024
1296.442061	1404.0
1296.982406	1405.800049
1297.522696	1401.400024
1298.06293	1394.599976
1298.603108	1404.599976
1299.143229	1394.400024
1299.683295	1388.800049
1300.223305	1408.400024
1300.763259	1395.0
1301.303157	1397.400024
1301.842999	1388.400024
1302.382785	1406.599976
1302.922515	1389.0
1303.462189	1403.0
1304.001807	1383.599976
1304.541369	1400.400024
1305.080875	1399.0
1305.620326	1392.599976
1306.15972	1388.800049
1306.699058	1396.599976
1307.238341	1396.199951
1307.777567	1401.199951
1308.316738	1388.0
1308.855853	1394.800049
1309.394912	1394.599976
1309.933915	1407.599976
1310.472862	1402.400024
1311.011753	1400.800049
1311.550588	1384.400024
1312.089367	1380.199951
1312.62809	1381.599976
1313.166758	1377.0
1313.70537	1386.800049
1314.243925	1376.400024
1314.782425	1392.599976
1315.320869	1376.599976
1315.859257	1369.199951
1316.397589	1373.0
1316.935866	1371.599976
1317.474086	1374.599976
1318.012251	1391.199951
1318.55036	1377.400024
1319.088413	1385.199951
1319.62641	1380.599976
1320.164351	1385.0
1320.702236	1363.599976
1321.240066	1394.400024
1321.777839	1381.599976
1322.315557	1392.0
1322.853219	1367.400024
1323.390826	1362.599976
1323.928376	1380.599976
1324.465871	1378.599976
1325.003309	1369.199951
1325.540692	1385.400024
1326.07802	1372.800049
1326.615291	1379.800049
1327.152506	1368.0
1327.689666	1370.400024
1328.22677	1374.199951
1328.763818	1364.800049
1329.300811	1375.0
1329.837747	1374.199951
1330.374628	1360.800049
1330.911453	1365.400024
1331.448222	1374.400024
1331.984936	1363.0
1332.521594	1365.800049
1333.058196	1368.0
1333.594742	1382.199951
1334.131232	1361.400024
1334.667667	1371.400024
1335.204046	1355.400024
1335.740369	1371.800049
1336.276637	1355.199951
1336.812848	1364.199951
1337.349004	1360.800049
1337.885105	1375.800049
1338.421149	1369.0
1338.957138	1362.599976
1339.493071	1366.400024
1340.028949	1372.199951
1340.56477	1370.400024
1341.100536	1361.400024
1341.636246	1364.400024
1342.171901	1354.0
1342.7075	1369.0
1343.243043	1356.800049
1343.77853	1364.199951
1344.313962	1360.0
1344.849338	1372.0
1345.384659	1362.800049
1345.919923	1358.400024
1346.455133	1346.400024
1346.990286	1373.199951
1347.525384	1355.199951
1348.060426	1362.800049
1348.595412	1355.599976
1349.130343	1350.400024
1349.665218	1359.400024
1350.200037	1357.400024
1350.734801	1327.400024
1351.269509	1336.599976
1351.804162	1361.199951
1352.338758	1359.0
1352.8733	1362.0
1353.407785	1357.0
1353.942215	1355.599976
1354.476589	1345.400024
1355.010908	1353.800049
1355.545171	1353.800049
1356.079379	1349.800049
1356.61353	1352.400024
1357.147627	1364.0
1357.681667	1366.800049
1358.215652	1371.800049
1358.749582	1358.800049
1359.283456	1341.199951
1359.817274	1355.800049
1360.351037	1341.800049
1360.884744	1352.400024
1361.418395	1361.0
1361.951991	1367.400024
1362.485531	1355.0
1363.019016	1343.599976
1363.552445	1333.599976
1364.085819	1359.599976
1364.619137	1340.199951
1365.1524	1364.599976
1365.685607	1362.800049
1366.218758	1356.800049
1366.751854	1344.800049
1367.284894	1348.0
1367.817879	1346.599976
1368.350808	1342.400024
1368.883682	1335.199951
1369.4165	1356.0
1369.949263	1397.800049
1370.48197	1401.599976
1371.014622	1358.0
1371.547218	1332.0
1372.079758	1343.400024
1372.612244	1338.0
1373.144673	1358.199951
1373.677047	1339.800049
1374.209366	1353.0
1374.741629	1356.0
1375.273836	1350.599976
1375.805989	1343.800049
1376.338085	1342.400024
1376.870126	1361.599976
1377.402112	1343.0
1377.934042	1345.800049
1378.465917	1348.400024
1378.997736	1359.400024
1379.5295	1350.0
1380.061208	1353.400024
1380.592861	1340.0
1381.124459	1351.800049
1381.656	1342.800049
1382.187487	1350.599976
1382.718918	1341.800049
1383.250294	1369.400024
1383.781614	1356.599976
1384.312879	1369.599976
1384.844088	1386.400024
1385.375242	1403.800049
1385.90634	1472.199951
1386.437383	1512.400024
1386.968371	1700.400024
1387.499303	2276.800049
1388.03018	4307.399902
1388.561001	5407.799805
1389.091767	2901.399902
1389.622478	1734.800049
1390.153133	1501.599976
1390.683733	1436.0
1391.214277	1398.0
1391.744766	1387.199951
1392.2752	1365.800049
1392.805578	1350.199951
1393.335901	1355.199951
1393.866168	1350.599976
1394.396381	1339.800049
1394.926537	1346.0
1395.456639	1345.599976
1395.986685	1330.599976
1396.516675	1326.0
1397.046611	1334.0
1397.576491	1331.800049
1398.106315	1332.0
1398.636084	1328.400024
1399.165798	1340.599976
1399.695457	1339.400024
1400.22506	1325.599976
1400.754608	1332.0
1401.284101	1336.400024
1401.813538	1322.800049
1402.34292	1325.800049
1402.872247	1329.199951
1403.401518	1323.0
1403.930734	1321.199951
1404.459895	1322.800049
1404.989	1325.400024
1405.51805	1316.400024
1406.047045	1333.599976
1406.575984	1331.400024
1407.104869	1350.599976
1407.633697	1349.199951
1408.162471	1354.0
1408.691189	1419.400024
1409.219852	1517.199951
1409.74846	1594.400024
1410.277013	1516.599976
1410.80551	1399.800049
1411.333952	1358.199951
1411.862339	1327.199951
1412.39067	1328.199951
1412.918946	1319.800049
1413.447167	1320.800049
1413.975333	1299.800049
1414.503444	1311.400024
1415.031499	1315.199951
1415.559499	1321.400024
1416.087444	1309.800049
1416.615333	1309.199951
1417.143167	1319.199951
1417.670947	1312.599976
1418.19867	1305.800049
1418.726339	1305.199951
1419.253952	1317.599976
1419.781511	1307.800049
1420.309014	1297.400024
1420.836461	1299.199951
1421.363854	1311.400024
1421.891191	1312.199951
1422.418474	1299.800049
1422.945701	1314.0
1423.472872	1308.599976
1423.999989	1296.599976
1424.52705	1298.199951
1425.054057	1306.599976
1425.581008	1306.599976
1426.107904	1316.599976
1426.634745	1312.599976
1427.16153	1301.800049
1427.688261	1293.400024
1428.214936	1298.199951
1428.741556	1308.400024
1429.268121	1297.199951
1429.794631	1306.800049
1430.321085	1293.800049
1430.847485	1305.0
1431.373829	1293.599976
1431.900118	1295.400024
1432.426353	1289.800049
1432.952532	1281.199951
1433.478655	1300.0
1434.004724	1299.199951
1434.530738	1283.0
1435.056696	1290.0
1435.5826	1297.0
1436.108448	1298.599976
1436.634241	1286.199951
1437.159979	1289.800049
1437.685662	1297.599976
1438.21129	1289.400024
1438.736863	1287.0
1439.262381	1283.0
1439.787843	1289.199951
1440.313251	1287.400024
1440.838603	1297.599976
1441.3639	1278.400024
1441.889143	1278.599976
1442.41433	1287.800049
1442.939462	1269.800049
1443.464539	1277.400024
1443.989561	1284.199951
1444.514528	1278.599976
1445.03944	1285.199951
1445.564297	1282.400024
1446.089099	1283.599976
1446.613846	1291.400024
1447.138537	1290.0
1447.663174	1284.199951
1448.187756	1277.0
1448.712282	1284.599976
1449.236754	1279.400024
1449.761171	1283.800049
1450.285532	1271.800049
1450.809839	1271.400024
1451.33409	1265.0
1451.858287	1265.400024
1452.382428	1265.599976
1452.906515	1273.199951
1453.430546	1265.199951
1453.954523	1275.0
1454.478444	1262.800049
1455.002311	1280.0
1455.526123	1269.400024
1456.049879	1281.800049
1456.573581	1275.0
1457.097227	1267.0
1457.620819	1290.400024
1458.144356	1280.0
1458.667837	1266.599976
1459.191264	1263.800049
1459.714636	1271.800049
1460.237952	1250.599976
1460.761214	1267.800049
1461.284421	1267.599976
1461.807573	1272.599976
1462.33067	1263.800049
1462.853712	1275.0
1463.376699	1252.0
1463.899632	1267.400024
1464.422509	1256.400024
1464.945331	1263.400024
1465.468099	1259.0
1465.990811	1254.800049
1466.513469	1257.400024
1467.036071	1263.800049
1467.558619	1272.800049
1468.081112	1261.199951
1468.60355	1261.199951
1469.125933	1256.0
1469.648261	1246.800049
1470.170534	1271.400024
1470.692752	1257.0
1471.214916	1259.599976
1471.737024	1255.199951
1472.259078	1248.599976
1472.781077	1264.199951
1473.303021	1260.599976
1473.82491	1254.800049
1474.346744	1257.0
1474.868523	1251.800049
1475.390248	1240.599976
1475.911917	1256.599976
1476.433532	1255.599976
1476.955092	1257.0
1477.476597	1256.0
1477.998047	1248.800049
1478.519442	1242.599976
1479.040783	1254.199951
1479.562068	1252.0
1480.083299	1252.199951
1480.604475	1243.400024
1481.125596	1252.400024
1481.646663	1246.599976
1482.167674	1245.0
1482.688631	1238.199951
1483.209533	1239.800049
1483.73038	1254.599976
1484.251172	1246.199951
1484.771909	1247.199951
1485.292592	1243.800049
1485.81322	1235.199951
1486.333793	1245.199951
1486.854311	1251.599976
1487.374775	1248.599976
1487.895183	1244.0
1488.415537	1245.199951
1488.935836	1239.199951
1489.456081	1250.800049
1489.97627	1235.199951
1490.496405	1227.0
1491.016485	1240.199951
1491.536511	1235.800049
1492.056481	1235.800049
1492.576397	1245.199951
1493.096258	1242.599976
1493.616064	1234.400024
1494.135816	1233.400024
1494.655513	1249.400024
1495.175155	1231.400024
1495.694742	1235.599976
1496.214274	1230.199951
1496.733752	1239.599976
1497.253175	1235.599976
1497.772544	1230.599976
1498.291858	1236.0
1498.811116	1232.800049
1499.330321	1239.599976
1499.84947	1253.199951
1500.368565	1236.0
1500.887605	1221.0
1501.406591	1239.400024
1501.925521	1238.400024
1502.444397	1235.800049
1502.963219	1240.400024
1503.481985	1245.599976
1504.000697	1235.599976
1504.519355	1233.800049
1505.037957	1229.0
1505.556505	1239.400024
1506.074999	1243.199951
1506.593437	1233.199951
1507.111821	1234.0
1507.63015	1235.400024
1508.148425	1227.0
1508.666645	1229.800049
1509.18481	1223.199951
1509.702921	1239.400024
1510.220977	1230.400024
1510.738979	1224.800049
1511.256925	1239.599976
1511.774817	1229.0
1512.292655	1222.400024
1512.810438	1231.800049
1513.328166	1223.599976
1513.84584	1231.800049
1514.363459	1218.0
1514.881023	1233.599976
1515.398533	1224.199951
1515.915988	1241.599976
1516.433389	1217.400024
1516.950734	1230.800049
1517.468026	1227.0
1517.985263	1240.199951
1518.502445	1220.599976
1519.019572	1222.800049
1519.536645	1220.199951
1520.053664	1215.599976
1520.570628	1225.800049
1521.087537	1221.400024
1521.604392	1233.599976
1522.121192	1227.199951
1522.637937	1220.599976
1523.154628	1219.0
1523.671265	1223.400024
1524.187847	1235.800049
1524.704374	1226.199951
1525.220847	1218.0
1525.737265	1207.0
1526.253629	1222.0
1526.769938	1215.800049
1527.286192	1223.599976
1527.802392	1219.599976
1528.318538	1222.199951
1528.834629	1224.0
1529.350666	1233.599976
1529.866648	1213.0
1530.382575	1231.199951
1530.898448	1223.199951
1531.414266	1227.599976
1531.93003	1213.800049
1532.44574	1222.800049
1532.961395	1232.800049
1533.476995	1220.599976
1533.992541	1218.599976
1534.508033	1231.199951
1535.02347	1231.599976
1535.538852	1213.800049
1536.05418	1224.400024
1536.569454	1216.800049
1537.084673	1216.400024
1537.599837	1213.0
1538.114947	1216.199951
1538.630003	1227.800049
1539.145004	1210.199951
1539.659951	1217.800049
1540.174843	1218.0
1540.689681	1213.199951
1541.204465	1216.599976
1541.719194	1217.0
1542.233868	1218.0
1542.748488	1230.199951
1543.263054	1213.400024
1543.777565	1214.0
1544.292022	1216.800049
1544.806424	1216.599976
1545.320772	1211.0
1545.835066	1213.800049
1546.349305	1216.0
1546.863489	1222.0
1547.37762	1211.800049
1547.891696	1215.800049
1548.405717	1219.599976
1548.919684	1218.199951
1549.433597	1207.199951
1549.947455	1212.599976
1550.461259	1213.199951
1550.975009	1213.199951
1551.488704	1211.800049
1552.002345	1219.400024
1552.515931	1218.599976
1553.029463	1225.800049
1553.542941	1212.800049
1554.056364	1205.0
1554.569733	1217.599976
1555.083048	1215.400024
1555.596308	1214.400024
1556.109514	1208.400024
1556.622665	1210.0
1557.135762	1203.0
1557.648805	1202.599976
1558.161794	1220.0
1558.674728	1210.599976
1559.187608	1208.0
1559.700433	1224.800049
1560.213205	1223.400024
1560.725921	1209.400024
1561.238584	1227.0
1561.751192	1209.800049
1562.263746	1207.199951
1562.776246	1207.800049
1563.288691	1205.400024
1563.801082	1224.199951
1564.313419	1215.0
1564.825701	1205.0
1565.337929	1204.599976
1565.850103	1197.199951
1566.362223	1205.599976
1566.874288	1228.199951
1567.386299	1211.800049
1567.898256	1210.199951
1568.410158	1203.800049
1568.922007	1211.800049
1569.4338	1204.400024
1569.94554	1201.199951
1570.457226	1202.800049
1570.968857	1209.400024
1571.480434	1204.400024
1571.991956	1204.599976
1572.503425	1215.0
1573.014839	1204.0
1573.526199	1208.800049
1574.037505	1201.400024
1574.548756	1208.400024
1575.059953	1190.199951
1575.571096	1206.400024
1576.082185	1203.800049
1576.59322	1212.0
1577.1042	1221.400024
1577.615126	1190.800049
1578.125998	1205.599976
1578.636816	1197.0
1579.14758	1188.599976
1579.658289	1206.400024
1580.168944	1202.800049
1580.679545	1185.0
1581.190092	1198.800049
1581.700585	1203.199951
1582.211023	1192.800049
1582.721407	1204.800049
1583.231737	1197.800049
1583.742013	1202.400024
1584.252235	1192.400024
1584.762403	1210.199951
1585.272516	1200.199951
1585.782575	1201.400024
1586.292581	1187.0
1586.802532	1205.599976
1587.312428	1195.800049
1587.822271	1204.800049
1588.33206	1205.199951
1588.841794	1198.599976
1589.351474	1209.400024
1589.8611	1193.199951
1590.370672	1203.599976
1590.88019	1212.599976
1591.389654	1196.199951
1591.899064	1196.599976
