1042.452273	1523.400024
1043.018714	1540.800049
1043.585098	1528.199951
1044.151424	1541.199951
1044.717692	1547.400024
1045.283903	1529.400024
1045.850056	1549.0
1046.416151	1540.800049
1046.982188	1528.400024
1047.548167	1525.0
1048.114089	1536.400024
1048.679953	1541.599976
1049.24576	1531.800049
1049.811509	1535.599976
1050.3772	1537.599976
1050.942833	1530.199951
1051.508408	1525.0
1052.073926	1510.800049
1052.639387	1531.199951
1053.204789	1530.800049
1053.770134	1531.800049
1054.335421	1546.800049
1054.900651	1517.400024
1055.465823	1529.599976
1056.030937	1531.599976
1056.595993	1539.0
1057.160992	1527.0
1057.725934	1529.199951
1058.290817	1514.199951
1058.855643	1508.800049
1059.420411	1527.199951
1059.985122	1516.400024
1060.549775	1518.599976
1061.114371	1529.199951
1061.678908	1521.800049
1062.243389	1527.199951
1062.807811	1522.400024
1063.372176	1517.0
1063.936483	1546.800049
1064.500733	1513.199951
1065.064925	1511.400024
1065.62906	1508.0
1066.193137	1516.199951
1066.757156	1512.199951
1067.321118	1509.400024
1067.885022	1513.0
1068.448869	1503.400024
1069.012658	1512.800049
1069.57639	1517.199951
1070.140063	1524.400024
1070.70368	1512.599976
1071.267239	1519.599976
1071.83074	1519.199951
1072.394184	1507.800049
1072.95757	1517.800049
1073.520899	1509.400024
1074.08417	1510.199951
1074.647383	1487.800049
1075.21054	1506.599976
1075.773638	1519.800049
1076.336679	1502.599976
1076.899663	1499.199951
1077.462589	1509.199951
1078.025457	1487.0
1078.588268	1498.800049
1079.151022	1485.400024
1079.713718	1502.800049
1080.276356	1477.800049
1080.838937	1511.599976
1081.401461	1497.0
1081.963927	1492.800049
1082.526336	1493.400024
1083.088687	1502.400024
1083.650981	1472.400024
1084.213217	1498.599976
1084.775396	1498.800049
1085.337517	1502.199951
1085.899581	1488.599976
1086.461587	1488.0
1087.023536	1481.0
1087.585428	1487.599976
1088.147262	1476.800049
1088.709039	1494.800049
1089.270758	1479.800049
1089.83242	1484.400024
1090.394024	1482.0
1090.955571	1488.400024
1091.517061	1482.599976
1092.078493	1482.800049
1092.639868	1470.400024
1093.201185	1479.199951
1093.762445	1471.800049
1094.323648	1474.400024
1094.884793	1465.599976
1095.445881	1479.199951
1096.006911	1467.0
1096.567884	1473.0
1097.1288	1474.0
1097.689659	1465.800049
1098.25046	1481.599976
1098.811203	1477.599976
1099.37189	1463.199951
1099.932518	1474.800049
1100.49309	1459.599976
1101.053604	1469.599976
1101.614061	1450.800049
1102.174461	1464.800049
1102.734803	1471.599976
1103.295088	1480.0
1103.855316	1454.400024
1104.415486	1475.800049
1104.975599	1450.400024
1105.535655	1459.599976
1106.095653	1444.599976
1106.655594	1467.0
1107.215478	1457.800049
1107.775305	1453.0
1108.335074	1454.0
1108.894786	1449.0
1109.45444	1438.800049
1110.014038	1455.800049
1110.573578	1443.800049
1111.133061	1453.800049
1111.692486	1446.199951
1112.251854	1458.800049
1112.811165	1452.599976
1113.370419	1446.599976
1113.929616	1451.199951
1114.488755	1450.599976
1115.047837	1439.800049
1115.606862	1454.0
1116.16583	1453.800049
1116.72474	1459.199951
1117.283593	1439.0
1117.842389	1450.0
1118.401128	1439.400024
1118.959809	1453.0
1119.518433	1448.0
1120.077	1437.400024
1120.63551	1435.199951
1121.193963	1439.599976
1121.752358	1437.199951
1122.310697	1448.0
1122.868978	1446.800049
1123.427202	1449.0
1123.985368	1432.199951
1124.543478	1436.400024
1125.10153	1432.199951
1125.659526	1444.0
1126.217464	1430.599976
1126.775345	1440.199951
1127.333168	1448.199951
1127.890935	1443.599976
1128.448644	1444.0
1129.006297	1442.400024
1129.563892	1437.199951
1130.12143	1422.199951
1130.678911	1444.400024
1131.236335	1431.599976
1131.793701	1428.400024
1132.351011	1445.0
1132.908263	1426.400024
1133.465458	1414.199951
1134.022597	1423.199951
1134.579678	1434.400024
1135.136702	1444.599976
1135.693669	1430.800049
1136.250578	1416.400024
1136.807431	1429.599976
1137.364227	1428.599976
1137.920965	1448.400024
1138.477647	1429.400024
1139.034271	1425.400024
1139.590839	1434.599976
1140.147349	1447.599976
1140.703802	1432.800049
1141.260198	1429.800049
1141.816537	1437.199951
1142.37282	1434.0
1142.929045	1435.0
1143.485213	1450.400024
1144.041323	1424.599976
1144.597377	1442.599976
1145.153374	1421.199951
1145.709314	1432.400024
1146.265197	1431.800049
1146.821023	1457.0
1147.376792	1465.0
1147.932503	1447.800049
1148.488158	1453.0
1149.043756	1467.400024
1149.599297	1541.400024
1150.154781	1746.0
1150.710207	1686.599976
1151.265577	1508.199951
1151.82089	1448.800049
1152.376146	1439.400024
1152.931345	1418.800049
1153.486487	1434.800049
1154.041572	1439.0
1154.5966	1437.599976
1155.151571	1414.800049
1155.706485	1430.800049
1156.261342	1419.0
1156.816142	1427.400024
1157.370885	1426.599976
1157.925572	1422.599976
1158.480201	1430.400024
1159.034774	1417.199951
1159.589289	1435.800049
1160.143748	1425.199951
1160.698149	1427.199951
1161.252494	1413.599976
1161.806782	1424.599976
1162.361013	1417.199951
1162.915187	1427.800049
1163.469304	1407.400024
1164.023364	1418.0
1164.577368	1414.800049
1165.131314	1420.400024
1165.685204	1420.800049
1166.239036	1426.800049
1166.792812	1422.199951
1167.346531	1426.199951
1167.900193	1431.199951
1168.453798	1422.599976
1169.007347	1398.199951
1169.560838	1415.0
1170.114273	1416.800049
1170.66765	1403.800049
1171.220971	1421.599976
1171.774235	1414.400024
1172.327443	1416.0
1172.880593	1405.800049
1173.433687	1400.0
1173.986723	1418.199951
1174.539703	1425.199951
1175.092626	1425.599976
1175.645493	1414.199951
1176.198302	1411.800049
1176.751055	1391.400024
1177.303751	1399.800049
1177.85639	1416.0
1178.408972	1423.199951
1178.961498	1417.400024
1179.513966	1409.800049
1180.066378	1396.800049
1180.618733	1404.599976
1181.171032	1415.800049
1181.723273	1403.0
1182.275458	1420.0
1182.827586	1393.599976
1183.379657	1417.0
1183.931672	1391.599976
1184.48363	1400.199951
1185.035531	1411.599976
1185.587375	1406.199951
1186.139162	1398.800049
1186.690893	1408.0
1187.242567	1401.199951
1187.794184	1408.199951
1188.345745	1403.199951
1188.897249	1417.599976
1189.448696	1408.800049
1190.000086	1398.599976
1190.55142	1401.400024
1191.102697	1414.800049
1191.653918	1394.0
1192.205081	1396.0
1192.756188	1406.400024
1193.307238	1402.599976
1193.858232	1411.199951
1194.409169	1409.400024
1194.960049	1400.199951
1195.510872	1391.599976
1196.061639	1392.199951
1196.612349	1398.199951
1197.163003	1394.800049
1197.713599	1392.0
1198.264139	1403.599976
1198.814623	1405.800049
1199.36505	1391.599976
1199.91542	1382.599976
1200.465734	1381.800049
1201.01599	1391.0
1201.566191	1391.800049
1202.116334	1400.199951
1202.666421	1404.800049
1203.216452	1388.599976
1203.766425	1391.800049
1204.316343	1395.800049
1204.866203	1391.400024
1205.416007	1391.800049
1205.965754	1394.0
1206.515445	1376.800049
1207.065079	1398.199951
1207.614657	1380.199951
1208.164177	1377.400024
1208.713642	1383.400024
1209.26305	1387.199951
1209.812401	1379.800049
1210.361695	1381.599976
1210.910933	1392.199951
1211.460115	1395.800049
1212.00924	1393.199951
1212.558308	1372.400024
1213.10732	1384.800049
1213.656275	1382.800049
1214.205174	1384.0
1214.754016	1366.199951
1215.302801	1378.400024
1215.85153	1377.400024
1216.400203	1386.0
1216.948819	1375.0
1217.497378	1382.599976
1218.045881	1384.0
1218.594327	1377.0
1219.142717	1377.0
1219.691051	1390.199951
1220.239327	1377.400024
1220.787548	1372.800049
1221.335712	1377.0
1221.883819	1387.0
1222.43187	1385.599976
1222.979864	1368.400024
1223.527802	1364.199951
1224.075683	1365.800049
1224.623508	1381.599976
1225.171277	1372.0
1225.718989	1369.400024
1226.266644	1365.800049
1226.814243	1380.0
1227.361786	1371.0
1227.909272	1355.0
1228.456702	1368.400024
1229.004075	1376.800049
1229.551392	1370.800049
1230.098652	1372.800049
1230.645856	1366.199951
1231.193003	1371.800049
1231.740094	1354.800049
1232.287129	1365.0
1232.834107	1365.0
1233.381029	1371.0
1233.927894	1380.0
1234.474703	1385.0
1235.021455	1372.199951
1235.568151	1360.599976
1236.114791	1352.199951
1236.661374	1373.800049
1237.207901	1376.199951
1237.754372	1359.199951
1238.300786	1375.599976
1238.847144	1382.400024
1239.393445	1375.800049
1239.93969	1370.599976
1240.485879	1359.0
1241.032011	1375.0
1241.578087	1354.800049
1242.124106	1365.199951
1242.67007	1361.0
1243.215976	1353.800049
1243.761827	1378.800049
1244.307621	1366.599976
1244.853359	1360.599976
1245.39904	1359.400024
1245.944665	1374.800049
1246.490234	1363.0
1247.035746	1368.199951
1247.581203	1358.199951
1248.126602	1355.800049
1248.671946	1362.0
1249.217233	1368.800049
1249.762464	1354.199951
1250.307638	1368.199951
1250.852757	1361.400024
1251.397819	1363.0
1251.942824	1352.199951
1252.487774	1372.0
1253.032667	1349.800049
1253.577503	1353.400024
1254.122284	1361.0
1254.667008	1344.599976
1255.211676	1347.199951
1255.756288	1362.400024
1256.300843	1375.400024
1256.845342	1362.800049
1257.389785	1343.0
1257.934172	1349.199951
1258.478502	1359.400024
1259.022776	1359.800049
1259.566994	1348.599976
1260.111156	1352.800049
1260.655261	1350.400024
1261.199311	1353.199951
1261.743304	1346.199951
1262.28724	1360.800049
1262.831121	1358.599976
1263.374945	1372.800049
1263.918713	1367.599976
1264.462425	1381.0
1265.006081	1400.599976
1265.54968	1385.0
1266.093223	1359.599976
1266.636711	1364.800049
1267.180141	1352.0
1267.723516	1341.0
1268.266835	1352.800049
1268.810097	1342.800049
1269.353303	1349.800049
1269.896453	1346.599976
1270.439547	1344.599976
1270.982584	1339.199951
1271.525566	1340.800049
1272.068491	1348.0
1272.61136	1338.599976
1273.154173	1340.0
1273.69693	1341.599976
1274.239631	1355.0
1274.782275	1343.599976
1275.324864	1349.400024
1275.867396	1346.0
1276.409872	1362.199951
1276.952292	1344.0
1277.494656	1340.199951
1278.036964	1343.800049
1278.579215	1352.400024
1279.121411	1345.199951
1279.66355	1337.0
1280.205634	1346.199951
1280.747661	1345.0
1281.289632	1348.800049
1281.831547	1354.400024
1282.373406	1371.599976
1282.915209	1394.400024
1283.456955	1426.0
1283.998646	1557.0
1284.540281	1812.0
1285.081859	1983.800049
1285.623381	1662.199951
1286.164848	1429.0
1286.706258	1383.0
1287.247612	1356.0
1287.788911	1338.400024
1288.330153	1340.599976
1288.871339	1329.599976
1289.412469	1343.199951
1289.953543	1319.800049
1290.494561	1341.599976
1291.035523	1325.400024
1291.576428	1335.199951
1292.117278	1332.400024
1292.658072	1321.599976
1293.19881	1332.800049
1293.739492	1311.400024
1294.280118	1330.199951
1294.820687	1320.199951
1295.361201	1328.800049
1295.901659	1319.800049
1296.442061	1333.0
1296.982406	1319.0
1297.522696	1335.199951
1298.06293	1304.400024
1298.603108	1331.199951
1299.143229	1326.199951
1299.683295	1326.599976
1300.223305	1329.400024
1300.763259	1315.199951
1301.303157	1307.800049
1301.842999	1314.599976
1302.382785	1318.800049
1302.922515	1320.800049
1303.462189	1324.400024
1304.001807	1332.800049
1304.541369	1316.800049
1305.080875	1312.0
1305.620326	1314.400024
1306.15972	1309.800049
1306.699058	1305.800049
1307.238341	1310.400024
1307.777567	1320.199951
1308.316738	1295.599976
1308.855853	1321.199951
1309.394912	1318.199951
1309.933915	1317.0
1310.472862	1317.0
1311.011753	1319.400024
1311.550588	1314.400024
1312.089367	1325.800049
1312.62809	1302.599976
1313.166758	1316.400024
1313.70537	1318.199951
1314.243925	1296.400024
1314.782425	1304.800049
1315.320869	1306.400024
1315.859257	1309.199951
1316.397589	1320.0
1316.935866	1314.400024
1317.474086	1304.800049
1318.012251	1309.400024
1318.55036	1310.400024
1319.088413	1298.400024
1319.62641	1314.599976
1320.164351	1316.0
1320.702236	1310.800049
1321.240066	1298.400024
1321.777839	1289.599976
1322.315557	1316.0
1322.853219	1300.800049
1323.390826	1298.599976
1323.928376	1312.400024
1324.465871	1293.400024
1325.003309	1313.800049
1325.540692	1312.400024
1326.07802	1309.400024
1326.615291	1294.800049
1327.152506	1293.199951
1327.689666	1309.800049
1328.22677	1306.0
1328.763818	1292.400024
1329.300811	1298.800049
1329.837747	1291.0
1330.374628	1306.599976
1330.911453	1295.400024
1331.448222	1284.199951
1331.984936	1288.0
1332.521594	1297.199951
1333.058196	1282.400024
1333.594742	1293.199951
1334.131232	1290.199951
1334.667667	1307.400024
1335.204046	1293.800049
1335.740369	1290.800049
1336.276637	1297.800049
1336.812848	1292.199951
1337.349004	1299.199951
1337.885105	1289.599976
1338.421149	1288.199951
1338.957138	1301.800049
1339.493071	1296.400024
1340.028949	1288.800049
1340.56477	1294.0
1341.100536	1277.199951
1341.636246	1285.199951
1342.171901	1283.199951
1342.7075	1285.199951
1343.243043	1290.0
1343.77853	1287.0
1344.313962	1279.0
1344.849338	1292.599976
1345.384659	1287.199951
1345.919923	1299.400024
1346.455133	1278.0
1346.990286	1287.800049
1347.525384	1280.599976
1348.060426	1286.199951
1348.595412	1289.599976
1349.130343	1278.199951
1349.665218	1281.599976
1350.200037	1293.599976
1350.734801	1283.400024
1351.269509	1276.800049
1351.804162	1300.599976
1352.338758	1273.599976
1352.8733	1273.800049
1353.407785	1266.199951
1353.942215	1287.199951
1354.476589	1295.0
1355.010908	1282.800049
1355.545171	1274.599976
1356.079379	1279.599976
1356.61353	1277.599976
1357.147627	1288.400024
1357.681667	1274.199951
1358.215652	1280.599976
1358.749582	1275.199951
1359.283456	1287.199951
1359.817274	1286.800049
1360.351037	1266.800049
1360.884744	1290.0
1361.418395	1271.0
1361.951991	1282.599976
1362.485531	1276.599976
1363.019016	1282.0
1363.552445	1283.400024
1364.085819	1277.0
1364.619137	1280.199951
1365.1524	1285.0
1365.685607	1285.199951
1366.218758	1283.400024
1366.751854	1271.199951
1367.284894	1278.800049
1367.817879	1273.0
1368.350808	1284.800049
1368.883682	1278.0
1369.4165	1282.599976
1369.949263	1287.800049
1370.48197	1283.599976
1371.014622	1276.199951
1371.547218	1269.599976
1372.079758	1277.0
1372.612244	1269.800049
1373.144673	1277.599976
1373.677047	1279.400024
1374.209366	1281.0
1374.741629	1275.800049
1375.273836	1259.599976
1375.805989	1265.400024
1376.338085	1272.800049
1376.870126	1276.0
1377.402112	1278.400024
1377.934042	1267.0
1378.465917	1265.400024
1378.997736	1284.800049
1379.5295	1272.199951
1380.061208	1272.800049
1380.592861	1265.400024
1381.124459	1264.0
1381.656	1270.0
1382.187487	1287.800049
1382.718918	1259.199951
1383.250294	1275.800049
1383.781614	1269.800049
1384.312879	1271.800049
1384.844088	1286.800049
1385.375242	1288.599976
1385.90634	1293.0
1386.437383	1332.199951
1386.968371	1394.400024
1387.499303	1589.599976
1388.03018	2191.600098
1388.561001	2394.600098
1389.091767	1696.199951
1389.622478	1372.599976
1390.153133	1314.400024
1390.683733	1291.599976
1391.214277	1287.400024
1391.744766	1258.800049
1392.2752	1275.199951
1392.805578	1289.199951
1393.335901	1266.0
1393.866168	1264.599976
1394.396381	1260.0
1394.926537	1277.199951
1395.456639	1260.0
1395.986685	1256.400024
1396.516675	1258.599976
1397.046611	1262.0
1397.576491	1261.599976
1398.106315	1261.400024
1398.636084	1258.199951
1399.165798	1269.199951
1399.695457	1265.400024
1400.22506	1266.599976
1400.754608	1253.800049
1401.284101	1264.599976
1401.813538	1261.199951
1402.34292	1267.199951
1402.872247	1260.400024
1403.401518	1249.800049
1403.930734	1256.199951
1404.459895	1251.800049
1404.989	1254.0
1405.51805	1251.800049
1406.047045	1276.800049
1406.575984	1265.400024
1407.104869	1260.400024
1407.633697	1263.400024
1408.162471	1270.599976
1408.691189	1274.0
1409.219852	1305.0
1409.74846	1341.400024
1410.277013	1311.599976
1410.80551	1280.599976
1411.333952	1260.0
1411.862339	1256.199951
1412.39067	1258.400024
1412.918946	1245.800049
1413.447167	1248.400024
1413.975333	1249.199951
1414.503444	1264.800049
1415.031499	1241.800049
1415.559499	1254.199951
1416.087444	1250.0
1416.615333	1247.199951
1417.143167	1267.800049
1417.670947	1252.0
1418.19867	1251.400024
1418.726339	1251.599976
1419.253952	1250.599976
1419.781511	1258.400024
1420.309014	1243.0
1420.836461	1255.400024
1421.363854	1250.199951
1421.891191	1242.400024
1422.418474	1240.599976
1422.945701	1259.199951
1423.472872	1244.0
1423.999989	1239.599976
1424.52705	1247.599976
1425.054057	1251.199951
1425.581008	1244.599976
1426.107904	1251.599976
1426.634745	1258.400024
1427.16153	1241.800049
1427.688261	1232.800049
1428.214936	1249.0
1428.741556	1245.400024
1429.268121	1237.599976
1429.794631	1244.400024
1430.321085	1252.199951
1430.847485	1233.599976
1431.373829	1256.599976
1431.900118	1237.0
1432.426353	1226.400024
1432.952532	1221.599976
1433.478655	1241.599976
1434.004724	1232.0
1434.530738	1236.0
1435.056696	1243.199951
1435.5826	1234.599976
1436.108448	1232.400024
1436.634241	1236.800049
1437.159979	1240.0
1437.685662	1241.0
1438.21129	1221.800049
1438.736863	1238.400024
1439.262381	1217.199951
1439.787843	1235.800049
1440.313251	1229.599976
1440.838603	1238.400024
1441.3639	1238.199951
1441.889143	1224.400024
1442.41433	1239.400024
1442.939462	1226.599976
1443.464539	1238.800049
1443.989561	1240.400024
1444.514528	1208.800049
1445.03944	1224.199951
1445.564297	1238.199951
1446.089099	1226.599976
1446.613846	1223.400024
1447.138537	1230.199951
1447.663174	1238.800049
1448.187756	1231.800049
1448.712282	1233.400024
1449.236754	1211.599976
1449.761171	1234.800049
1450.285532	1220.599976
1450.809839	1230.599976
1452.906515	1236.199951
1453.430546	1221.800049
1453.954523	1219.0
1454.478444	1234.599976
1455.002311	1236.599976
1455.526123	1228.800049
1456.049879	1232.599976
1456.573581	1222.800049
1457.097227	1225.599976
1457.620819	1224.599976
1458.144356	1230.199951
1458.667837	1226.400024
1459.191264	1223.199951
1459.714636	1229.400024
1460.237952	1222.199951
1460.761214	1231.0
1461.284421	1225.800049
1461.807573	1229.0
1462.33067	1212.0
1462.853712	1224.0
1463.376699	1223.800049
1463.899632	1216.800049
1464.422509	1230.199951
1464.945331	1221.199951
1465.468099	1223.800049
1465.990811	1212.599976
1466.513469	1222.199951
1467.036071	1219.199951
1467.558619	1222.599976
1468.081112	1230.400024
1468.60355	1219.0
1469.125933	1217.199951
1469.648261	1226.0
1470.170534	1210.599976
1470.692752	1232.199951
1471.214916	1215.400024
1471.737024	1217.400024
1472.259078	1216.0
1472.781077	1205.199951
1473.303021	1212.800049
1473.82491	1221.800049
1474.346744	1217.400024
1474.868523	1227.599976
1475.390248	1221.400024
1475.911917	1210.199951
1476.433532	1215.0
1476.955092	1221.800049
1477.476597	1213.800049
1477.998047	1216.400024
1478.519442	1203.400024
1479.040783	1212.599976
1479.562068	1218.599976
1480.083299	1211.599976
1480.604475	1203.599976
1481.125596	1210.0
1481.646663	1208.400024
1482.167674	1197.400024
1482.688631	1203.199951
1483.209533	1215.199951
1483.73038	1199.0
1484.251172	1201.800049
1484.771909	1211.599976
1485.292592	1198.0
1485.81322	1192.800049
1486.333793	1202.199951
1486.854311	1209.0
1487.374775	1212.599976
1487.895183	1211.800049
1488.415537	1202.599976
1488.935836	1202.400024
1489.456081	1208.0
1489.97627	1190.599976
1490.496405	1209.599976
1491.016485	1200.199951
1491.536511	1201.599976
1492.056481	1195.400024
1492.576397	1210.400024
1493.096258	1191.199951
1493.616064	1199.199951
1494.135816	1199.599976
1494.655513	1198.400024
1495.175155	1195.800049
1495.694742	1201.400024
1496.214274	1203.199951
1496.733752	1198.599976
1497.253175	1202.0
1497.772544	1187.199951
1498.291858	1195.199951
1498.811116	1192.800049
1499.330321	1192.599976
1499.84947	1200.0
1500.368565	1203.0
1500.887605	1203.199951
1501.406591	1202.400024
1501.925521	1190.800049
1502.444397	1201.199951
1502.963219	1195.800049
1503.481985	1191.0
1504.000697	1198.199951
1504.519355	1190.400024
1505.037957	1184.599976
1505.556505	1199.199951
1506.074999	1201.400024
1506.593437	1197.800049
1507.111821	1197.199951
1507.63015	1174.599976
1508.148425	1193.0
1508.666645	1195.400024
1509.18481	1192.0
1509.702921	1189.800049
1510.220977	1198.400024
1510.738979	1199.400024
1511.256925	1189.400024
1511.774817	1189.400024
1512.292655	1199.400024
1512.810438	1191.800049
1513.328166	1192.800049
1513.84584	1186.800049
1514.363459	1185.800049
1514.881023	1187.0
1515.398533	1193.199951
1515.915988	1192.400024
1516.433389	1193.0
1516.950734	1185.199951
1517.468026	1180.0
1517.985263	1179.400024
1518.502445	1190.800049
1519.019572	1181.599976
1519.536645	1186.0
1520.053664	1199.400024
1520.570628	1187.400024
1521.087537	1185.599976
1521.604392	1174.199951
1522.121192	1187.0
1522.637937	1198.400024
1523.154628	1180.800049
1523.671265	1189.800049
1524.187847	1192.599976
1524.704374	1180.199951
1525.220847	1188.599976
1525.737265	1177.199951
1526.253629	1187.599976
1526.769938	1177.599976
1527.286192	1178.400024
1527.802392	1181.400024
1528.318538	1175.800049
1528.834629	1183.0
1529.350666	1189.400024
1529.866648	1183.0
1530.382575	1192.599976
1530.898448	1168.400024
1531.414266	1190.800049
1531.93003	1195.599976
1532.44574	1176.199951
1532.961395	1190.400024
1533.476995	1188.400024
1533.992541	1193.199951
1534.508033	1171.400024
1535.02347	1183.400024
1535.538852	1190.599976
1536.05418	1186.400024
1536.569454	1180.599976
1537.084673	1182.800049
1537.599837	1194.400024
1538.114947	1170.599976
1538.630003	1179.400024
1539.145004	1179.400024
1539.659951	1173.0
1540.174843	1176.400024
1540.689681	1178.199951
1541.204465	1177.0
1541.719194	1169.0
1542.233868	1181.199951
1542.748488	1179.199951
1543.263054	1178.800049
1543.777565	1185.400024
1544.292022	1165.599976
1544.806424	1181.400024
1545.320772	1191.199951
1545.835066	1175.599976
1546.349305	1180.400024
1546.863489	1172.0
1547.37762	1180.199951
1547.891696	1184.199951
1548.405717	1182.199951
1548.919684	1179.599976
1549.433597	1183.599976
1549.947455	1179.800049
1550.461259	1176.800049
1550.975009	1176.0
1551.488704	1174.599976
1552.002345	1178.800049
1552.515931	1174.400024
1553.029463	1174.199951
1553.542941	1180.199951
1554.056364	1185.400024
1554.569733	1188.599976
1555.083048	1160.800049
1555.596308	1169.0
1556.109514	1182.0
1556.622665	1183.199951
1557.135762	1181.599976
1557.648805	1181.400024
1558.161794	1166.0
1558.674728	1180.199951
1559.187608	1171.199951
1559.700433	1172.599976
1560.213205	1183.199951
1560.725921	1171.199951
1561.238584	1174.400024
1561.751192	1172.599976
1562.263746	1174.599976
1562.776246	1174.800049
1563.288691	1165.599976
1563.801082	1181.400024
1564.313419	1174.599976
1564.825701	1171.199951
1565.337929	1167.400024
1565.850103	1174.0
1566.362223	1181.0
1566.874288	1179.400024
1567.386299	1177.800049
1567.898256	1178.0
1568.410158	1178.599976
1568.922007	1163.400024
1569.4338	1164.400024
1569.94554	1173.400024
1570.457226	1164.400024
1570.968857	1166.599976
1571.480434	1177.599976
1571.991956	1186.400024
1572.503425	1167.599976
1573.014839	1160.800049
1573.526199	1169.400024
1574.037505	1165.400024
1574.548756	1170.800049
1575.059953	1174.0
1575.571096	1171.0
1576.082185	1179.199951
1576.59322	1180.800049
1577.1042	1167.199951
1577.615126	1167.400024
1578.125998	1172.800049
1578.636816	1177.400024
1579.14758	1165.599976
1579.658289	1173.400024
1580.168944	1180.599976
1580.679545	1157.800049
1581.190092	1175.0
1581.700585	1150.199951
1582.211023	1172.199951
1582.721407	1156.800049
1583.231737	1154.800049
1583.742013	1164.800049
1584.252235	1174.800049
1584.762403	1166.400024
1585.272516	1174.0
1585.782575	1156.199951
1586.292581	1164.0
1586.802532	1169.400024
1587.312428	1163.0
1587.822271	1170.199951
1588.33206	1157.400024
1588.841794	1166.199951
1589.351474	1175.800049
1589.8611	1178.400024
1590.370672	1166.0
1590.88019	1163.800049
1591.389654	1166.0
1591.899064	1168.800049
