1043.018714	1058.199951
1043.585098	1053.400024
1044.151424	1063.800049
1044.717692	1051.0
1045.283903	1058.400024
1045.850056	1049.599976
1046.416151	1047.0
1046.982188	1055.400024
1047.548167	1052.800049
1048.114089	1052.800049
1048.679953	1052.400024
1049.24576	1051.599976
1049.811509	1046.599976
1050.3772	1052.599976
1050.942833	1056.199951
1051.508408	1064.599976
1052.073926	1039.800049
1052.639387	1047.0
1053.204789	1042.199951
1053.770134	1042.599976
1054.335421	1047.800049
1054.900651	1048.400024
1055.465823	1037.599976
1056.030937	1050.0
1056.595993	1047.199951
1057.160992	1041.599976
1057.725934	1037.199951
1058.290817	1037.199951
1058.855643	1043.400024
1059.420411	1046.0
1059.985122	1040.199951
1060.549775	1048.599976
1061.114371	1042.400024
1061.678908	1043.0
1062.243389	1049.800049
1062.807811	1040.800049
1063.372176	1039.199951
1063.936483	1035.599976
1064.500733	1041.0
1065.064925	1034.800049
1065.62906	1039.400024
1066.193137	1044.0
1066.757156	1036.400024
1067.321118	1039.800049
1067.885022	1047.800049
1068.448869	1042.0
1069.012658	1034.400024
1069.57639	1030.0
1070.140063	1037.0
1070.70368	1045.199951
1071.267239	1032.800049
1071.83074	1033.199951
1072.394184	1037.199951
1072.95757	1031.400024
1073.520899	1035.800049
1074.08417	1038.599976
1074.647383	1029.0
1075.21054	1033.199951
1075.773638	1033.599976
1076.336679	1039.0
1076.899663	1029.0
1077.462589	1032.400024
1078.025457	1031.400024
1078.588268	1032.400024
1079.151022	1033.199951
1079.713718	1037.199951
1080.276356	1036.599976
1080.838937	1031.0
1081.401461	1027.800049
1081.963927	1034.400024
1082.526336	1022.599976
1083.088687	1029.400024
1083.650981	1022.599976
1084.213217	1030.599976
1084.775396	1022.799988
1085.337517	1022.799988
1085.899581	1024.599976
1086.461587	1024.400024
1087.023536	1034.0
1087.585428	1027.599976
1088.147262	1024.400024
1088.709039	1025.0
1089.270758	1019.799988
1089.83242	1022.400024
1090.394024	1019.799988
1090.955571	1026.800049
1091.517061	1037.0
1092.078493	1024.800049
1092.639868	1016.799988
1093.201185	1025.199951
1093.762445	1026.0
1094.323648	1017.599976
1094.884793	1021.799988
1095.445881	1025.199951
1096.006911	1015.400024
1096.567884	1016.599976
1097.1288	1028.0
1097.689659	1019.400024
1098.25046	1006.200012
1098.811203	1012.799988
1099.37189	1023.799988
1099.932518	1014.200012
1100.49309	1010.799988
1101.053604	1012.0
1101.614061	1013.799988
1102.174461	1013.0
1102.734803	1001.799988
1103.295088	1000.799988
1103.855316	1010.799988
1104.415486	1027.800049
1104.975599	1003.400024
1105.535655	1014.400024
1106.095653	1016.0
1106.655594	1012.799988
1107.215478	1011.400024
1107.775305	1005.599976
1108.335074	1009.400024
1108.894786	1011.200012
1109.45444	1002.799988
1110.014038	1006.0
1110.573578	1011.799988
1111.133061	1010.799988
1111.692486	1003.200012
1112.251854	1014.200012
1112.811165	1010.599976
1113.370419	1001.0
1113.929616	999.5999756
1114.488755	1006.799988
1115.047837	1001.0
1115.606862	1005.599976
1116.16583	998.4000244
1116.72474	997.5999756
1117.283593	1012.799988
1117.842389	1004.400024
1118.401128	1007.400024
1118.959809	1003.599976
1119.518433	1004.400024
1120.077	1004.799988
1120.63551	1005.599976
1121.193963	1007.200012
1121.752358	999.2000122
1122.310697	1001.599976
1122.868978	1006.799988
1123.427202	1006.0
1123.985368	1003.200012
1124.543478	1006.599976
1125.10153	1001.0
1125.659526	1002.599976
1126.217464	1012.400024
1126.775345	1001.200012
1127.333168	1005.0
1127.890935	998.4000244
1128.448644	1000.0
1129.006297	997.2000122
1129.563892	989.5999756
1130.12143	996.7999878
1130.678911	1000.0
1131.236335	994.7999878
1131.793701	1000.799988
1132.351011	1003.400024
1132.908263	990.4000244
1133.465458	1000.0
1134.022597	1002.0
1134.579678	997.0
1135.136702	1000.799988
1135.693669	1004.0
1136.250578	1001.599976
1136.807431	1002.0
1137.364227	998.2000122
1137.920965	994.0
1138.477647	993.5999756
1139.034271	993.0
1139.590839	1004.200012
1140.147349	999.7999878
1140.703802	1007.0
1141.260198	994.4000244
1141.816537	1004.599976
1142.37282	995.5999756
1142.929045	1017.400024
1143.485213	1020.400024
1144.041323	1006.799988
1144.597377	1003.200012
1145.153374	1004.400024
1145.709314	1001.200012
1146.265197	1003.400024
1146.821023	1023.0
1147.376792	1039.800049
1147.932503	1022.200012
1148.488158	1017.0
1149.043756	1029.0
1149.599297	1084.800049
1150.154781	1257.199951
1150.710207	1382.400024
1151.265577	1147.400024
1151.82089	1039.800049
1152.376146	1012.799988
1152.931345	1006.0
1153.486487	1006.599976
1154.041572	1003.799988
1154.5966	1003.200012
1155.151571	990.0
1155.706485	991.7999878
1156.261342	990.7999878
1156.816142	992.0
1157.370885	995.4000244
1157.925572	994.7999878
1158.480201	995.2000122
1159.034774	990.0
1159.589289	988.0
1160.143748	994.2000122
1160.698149	997.2000122
1161.252494	991.7999878
1161.806782	995.7999878
1162.361013	990.0
1162.915187	995.2000122
1163.469304	994.5999756
1164.023364	996.2000122
1164.577368	992.4000244
1165.131314	995.0
1165.685204	990.5999756
1166.239036	994.0
1166.792812	986.4000244
1167.346531	1000.200012
1167.900193	997.4000244
1168.453798	992.7999878
1169.007347	997.4000244
1169.560838	993.0
1170.114273	992.4000244
1170.66765	998.7999878
1171.220971	989.5999756
1171.774235	980.4000244
1172.327443	986.7999878
1172.880593	985.4000244
1173.433687	981.2000122
1173.986723	982.2000122
1174.539703	991.5999756
1175.092626	995.4000244
1175.645493	990.2000122
1176.198302	993.4000244
1176.751055	984.7999878
1177.303751	986.5999756
1177.85639	982.4000244
1178.408972	987.4000244
1178.961498	986.0
1179.513966	981.7999878
1180.066378	981.0
1180.618733	986.5999756
1181.171032	990.7999878
1181.723273	987.2000122
1182.275458	987.2000122
1182.827586	981.2000122
1183.379657	981.5999756
1183.931672	976.2000122
1184.48363	983.5999756
1185.035531	978.4000244
1185.587375	978.7999878
1186.139162	986.5999756
1186.690893	983.5999756
1187.242567	978.2000122
1187.794184	975.0
1188.345745	976.7999878
1188.897249	989.4000244
1189.448696	979.2000122
1190.000086	980.7999878
1190.55142	974.4000244
1191.102697	983.5999756
1191.653918	977.7999878
1192.205081	981.0
1192.756188	988.5999756
1193.307238	991.5999756
1193.858232	981.7999878
1194.409169	978.5999756
1194.960049	971.5999756
1195.510872	970.4000244
1196.061639	982.7999878
1196.612349	977.2000122
1197.163003	969.0
1197.713599	982.4000244
1198.264139	985.0
1198.814623	970.5999756
1199.36505	970.7999878
1199.91542	971.4000244
1200.465734	974.2000122
1201.01599	969.4000244
1201.566191	977.0
1202.116334	971.2000122
1202.666421	971.0
1203.216452	968.7999878
1203.766425	975.7999878
1204.316343	965.4000244
1204.866203	973.7999878
1205.416007	973.5999756
1205.965754	971.2000122
1206.515445	971.7999878
1207.065079	969.0
1207.614657	980.2000122
1208.164177	971.2000122
1208.713642	981.2000122
1209.26305	972.5999756
1209.812401	965.0
1210.361695	963.0
1210.910933	971.7999878
1211.460115	979.5999756
1212.00924	971.4000244
1212.558308	969.7999878
1213.10732	961.2000122
1213.656275	972.7999878
1214.205174	967.7999878
1214.754016	965.2000122
1215.302801	972.5999756
1215.85153	969.5999756
1216.400203	967.0
1216.948819	954.0
1217.497378	970.0
1218.045881	975.4000244
1218.594327	972.7999878
1219.142717	968.7999878
1219.691051	976.2000122
1220.239327	969.7999878
1220.787548	963.5999756
1221.335712	974.0
1221.883819	967.2000122
1222.43187	965.0
1222.979864	966.4000244
1223.527802	971.0
1224.075683	962.7999878
1224.623508	978.4000244
1225.171277	966.5999756
1225.718989	962.4000244
1226.266644	969.2000122
1226.814243	964.7999878
1227.361786	958.5999756
1227.909272	961.0
1228.456702	968.5999756
1229.004075	962.2000122
1229.551392	960.5999756
1230.098652	972.0
1230.645856	968.2000122
1231.193003	968.0
1231.740094	959.4000244
1232.287129	964.2000122
1232.834107	964.2000122
1233.381029	968.0
1233.927894	965.4000244
1234.474703	969.0
1235.021455	966.5999756
1235.568151	958.0
1236.114791	959.5999756
1236.661374	952.4000244
1237.207901	962.4000244
1237.754372	971.7999878
1238.300786	958.5999756
1238.847144	967.5999756
1239.393445	969.2000122
1239.93969	959.7999878
1240.485879	960.2000122
1241.032011	967.5999756
1241.578087	961.4000244
1242.124106	959.5999756
1242.67007	965.2000122
1243.215976	957.5999756
1243.761827	957.7999878
1244.307621	951.4000244
1244.853359	960.2000122
1245.39904	962.0
1245.944665	959.7999878
1246.490234	958.7999878
1247.035746	962.5999756
1247.581203	958.5999756
1248.126602	960.2000122
1248.671946	956.5999756
1249.217233	960.2000122
1249.762464	957.0
1250.307638	957.7999878
1250.852757	952.7999878
1251.397819	959.0
1251.942824	956.7999878
1252.487774	956.5999756
1253.032667	950.7999878
1253.577503	950.0
1254.122284	956.0
1254.667008	952.4000244
1255.211676	953.2000122
1255.756288	962.0
1256.300843	959.2000122
1256.845342	948.7999878
1257.389785	961.4000244
1257.934172	968.4000244
1258.478502	954.0
1259.022776	958.4000244
1259.566994	967.4000244
1260.111156	964.5999756
1260.655261	959.2000122
1261.199311	952.2000122
1261.743304	958.0
1262.28724	958.0
1262.831121	958.7999878
1263.374945	961.0
1263.918713	968.5999756
1264.462425	989.7999878
1265.006081	1015.0
1265.54968	989.4000244
1266.093223	972.2000122
1266.636711	961.7999878
1267.180141	951.0
1267.723516	959.4000244
1268.266835	963.2000122
1268.810097	953.5999756
1269.353303	959.7999878
1269.896453	959.4000244
1270.439547	946.7999878
1270.982584	961.2000122
1271.525566	949.0
1272.068491	945.0
1272.61136	955.2000122
1273.154173	953.4000244
1273.69693	952.0
1274.239631	948.5999756
1274.782275	955.7999878
1275.324864	958.4000244
1275.867396	951.7999878
1276.409872	946.7999878
1276.952292	951.2000122
1277.494656	961.2000122
1278.036964	950.7999878
1278.579215	952.5999756
1279.121411	943.0
1279.66355	948.2000122
1280.205634	948.4000244
1280.747661	948.5999756
1281.289632	960.7999878
1281.831547	949.5999756
1282.373406	956.5999756
1282.915209	965.0
1283.456955	989.4000244
1283.998646	1028.800049
1284.540281	1189.599976
1285.081859	1606.199951
1285.623381	1649.599976
1286.164848	1169.800049
1286.706258	1014.599976
1287.247612	972.4000244
1287.788911	959.5999756
1288.330153	959.4000244
1288.871339	954.0
1289.412469	946.5999756
1289.953543	948.2000122
1290.494561	956.0
1291.035523	950.7999878
1291.576428	948.7999878
1292.117278	946.4000244
1292.658072	946.7999878
1293.19881	938.7999878
1293.739492	940.5999756
1294.280118	942.5999756
1294.820687	947.5999756
1295.361201	947.5999756
1295.901659	945.4000244
1296.442061	947.5999756
1296.982406	949.4000244
1297.522696	946.2000122
1298.06293	944.0
1298.603108	941.4000244
1299.143229	939.2000122
1299.683295	938.2000122
1300.223305	941.2000122
1300.763259	937.5999756
1301.303157	943.0
1301.842999	944.0
1302.382785	940.5999756
1302.922515	938.7999878
1303.462189	939.2000122
1304.001807	937.2000122
1304.541369	940.7999878
1305.080875	938.0
1305.620326	934.7999878
1306.15972	939.4000244
1306.699058	935.5999756
1307.238341	939.7999878
1307.777567	936.2000122
1308.316738	937.2000122
1308.855853	942.2000122
1309.394912	935.2000122
1309.933915	932.7999878
1310.472862	933.2000122
1311.011753	941.4000244
1311.550588	927.7999878
1312.089367	940.4000244
1312.62809	939.5999756
1313.166758	928.2000122
1313.70537	935.2000122
1314.243925	929.5999756
1314.782425	937.0
1315.320869	934.5999756
1315.859257	929.7999878
1316.397589	930.5999756
1316.935866	932.2000122
1317.474086	930.7999878
1318.012251	945.4000244
1318.55036	935.5999756
1319.088413	941.7999878
1319.62641	934.4000244
1320.164351	937.5999756
1320.702236	925.4000244
1321.240066	933.5999756
1321.777839	936.7999878
1322.315557	929.5999756
1322.853219	930.0
1323.390826	930.0
1323.928376	939.2000122
1324.465871	941.4000244
1325.003309	936.4000244
1325.540692	931.0
1326.07802	933.5999756
1326.615291	932.7999878
1327.152506	939.2000122
1327.689666	937.0
1328.22677	931.4000244
1328.763818	925.4000244
1329.300811	934.5999756
1329.837747	928.5999756
1330.374628	931.7999878
1330.911453	921.7999878
1331.448222	936.4000244
1331.984936	927.0
1332.521594	928.0
1333.058196	929.5999756
1333.594742	929.7999878
1334.131232	928.4000244
1334.667667	931.4000244
1335.204046	928.0
1335.740369	925.5999756
1336.276637	937.0
1336.812848	923.5999756
1337.349004	944.0
1337.885105	934.7999878
1338.421149	926.2000122
1338.957138	926.5999756
1339.493071	934.2000122
1340.028949	922.5999756
1340.56477	925.2000122
1341.100536	933.2000122
1341.636246	930.5999756
1342.171901	923.0
1342.7075	931.4000244
1343.243043	918.4000244
1343.77853	928.5999756
1344.313962	926.4000244
1344.849338	919.7999878
1345.384659	930.2000122
1345.919923	930.5999756
1346.455133	931.0
1346.990286	926.7999878
1347.525384	930.0
1348.060426	926.5999756
1348.595412	932.4000244
1349.130343	932.0
1349.665218	923.2000122
1350.200037	921.2000122
1350.734801	932.4000244
1351.269509	930.0
1351.804162	939.0
1352.338758	923.5999756
1352.8733	926.2000122
1353.407785	925.5999756
1353.942215	931.2000122
1354.476589	929.7999878
1355.010908	926.7999878
1355.545171	917.4000244
1356.079379	922.4000244
1356.61353	921.4000244
1357.147627	927.0
1357.681667	928.5999756
1358.215652	921.0
1358.749582	923.5999756
1359.283456	919.5999756
1359.817274	926.2000122
1360.351037	921.7999878
1360.884744	924.4000244
1361.418395	920.5999756
1361.951991	922.7999878
1362.485531	923.5999756
1363.019016	927.4000244
1363.552445	928.2000122
1364.085819	916.2000122
1364.619137	922.5999756
1365.1524	920.5999756
1365.685607	927.5999756
1366.218758	928.0
1366.751854	926.5999756
1367.284894	918.2000122
1367.817879	922.5999756
1368.350808	916.2000122
1368.883682	919.4000244
1369.4165	927.7999878
1369.949263	936.0
1370.48197	940.5999756
1371.014622	924.5999756
1371.547218	923.2000122
1372.079758	931.4000244
1372.612244	912.2000122
1373.144673	922.4000244
1373.677047	915.7999878
1374.209366	924.2000122
1374.741629	922.4000244
1375.273836	923.2000122
1375.805989	931.5999756
1376.338085	924.7999878
1376.870126	921.7999878
1377.402112	926.2000122
1377.934042	921.7999878
1378.465917	921.0
1378.997736	919.0
1379.5295	926.5999756
1380.061208	920.4000244
1380.592861	915.7999878
1381.124459	919.4000244
1381.656	931.0
1382.187487	917.5999756
1382.718918	925.7999878
1383.250294	916.2000122
1383.781614	925.0
1384.312879	919.4000244
1384.844088	924.4000244
1385.375242	935.4000244
1385.90634	936.5999756
1386.437383	945.7999878
1386.968371	969.4000244
1387.499303	1048.199951
1388.03018	1459.400024
1388.561001	2306.800049
1389.091767	1721.800049
1389.622478	1086.400024
1390.153133	974.2000122
1390.683733	946.7999878
1391.214277	929.4000244
1391.744766	931.5999756
1392.2752	927.0
1392.805578	919.0
1393.335901	918.5999756
1393.866168	923.5999756
1394.396381	914.2000122
1394.926537	919.5999756
1395.456639	920.7999878
1395.986685	909.7999878
1396.516675	914.0
1397.046611	916.2000122
1397.576491	916.7999878
1398.106315	923.0
1398.636084	919.2000122
1399.165798	912.2000122
1399.695457	911.7999878
1400.22506	912.7999878
1400.754608	913.4000244
1401.284101	910.2000122
1401.813538	908.5999756
1402.34292	913.4000244
1402.872247	912.5999756
1403.401518	912.4000244
1403.930734	916.5999756
1404.459895	915.2000122
1404.989	907.5999756
1405.51805	907.4000244
1406.047045	903.4000244
1406.575984	916.4000244
1407.104869	913.0
1407.633697	915.2000122
1408.162471	919.7999878
1408.691189	922.2000122
1409.219852	957.0
1409.74846	1005.400024
1410.277013	1003.400024
1410.80551	946.2000122
1411.333952	918.0
1411.862339	913.4000244
1412.39067	910.5999756
1412.918946	910.7999878
1413.447167	910.2000122
1413.975333	910.5999756
1414.503444	906.7999878
1415.031499	915.4000244
1415.559499	918.0
1416.087444	909.2000122
1416.615333	902.0
1417.143167	904.7999878
1417.670947	910.5999756
1418.19867	909.4000244
1418.726339	909.7999878
1419.253952	899.0
1419.781511	905.4000244
1420.309014	907.4000244
1420.836461	910.4000244
1421.363854	903.5999756
1421.891191	910.2000122
1422.418474	911.7999878
1422.945701	903.7999878
1423.472872	912.4000244
1423.999989	904.7999878
1424.52705	896.5999756
1425.054057	904.7999878
1425.581008	919.2000122
1426.107904	915.7999878
1426.634745	920.4000244
1427.16153	904.2000122
1427.688261	911.4000244
1428.214936	904.2000122
1428.741556	898.5999756
1429.268121	899.2000122
1429.794631	905.7999878
1430.321085	910.0
1430.847485	903.7999878
1431.373829	897.7999878
1431.900118	909.0
1432.426353	903.2000122
1432.952532	902.5999756
1433.478655	908.2000122
1434.004724	906.2000122
1434.530738	904.0
1435.056696	904.0
1435.5826	905.0
1436.108448	901.4000244
1436.634241	908.7999878
1437.159979	896.7999878
1437.685662	900.0
1438.21129	904.5999756
1438.736863	903.4000244
1439.262381	910.4000244
1439.787843	911.4000244
1440.313251	897.0
1440.838603	895.5999756
1441.3639	896.2000122
1441.889143	895.0
1442.41433	896.0
1442.939462	890.5999756
1443.464539	893.0
1443.989561	891.2000122
1444.514528	899.7999878
1445.03944	896.2000122
1445.564297	898.2000122
1446.089099	905.2000122
1446.613846	899.2000122
1447.138537	905.7999878
1447.663174	908.4000244
1448.187756	887.2000122
1448.712282	906.4000244
1449.236754	890.5999756
1449.761171	898.2000122
1450.285532	892.4000244
1450.809839	894.5999756
1451.33409	898.7999878
1451.858287	900.2000122
1452.382428	894.4000244
1452.906515	894.7999878
1453.430546	892.0
1453.954523	889.7999878
1454.478444	895.5999756
1455.002311	891.2000122
1455.526123	891.0
1456.049879	898.0
1456.573581	887.0
1457.097227	893.4000244
1457.620819	897.0
1458.144356	899.0
1458.667837	902.7999878
1459.191264	899.4000244
1459.714636	900.4000244
1460.237952	893.5999756
1460.761214	897.7999878
1461.284421	892.4000244
1461.807573	885.7999878
1462.33067	888.0
1462.853712	893.4000244
1463.376699	894.0
1463.899632	888.0
1464.422509	889.2000122
1464.945331	894.7999878
1465.468099	891.7999878
1465.990811	889.7999878
1466.513469	890.4000244
1467.036071	892.4000244
1467.558619	895.5999756
1468.081112	903.4000244
1468.60355	896.4000244
1469.125933	886.2000122
1469.648261	896.2000122
1470.170534	896.0
1470.692752	889.0
1471.214916	880.0
1471.737024	896.2000122
1472.259078	887.2000122
1472.781077	896.4000244
1473.303021	897.4000244
1473.82491	891.5999756
1474.346744	891.5999756
1474.868523	887.2000122
1475.390248	888.2000122
1475.911917	883.7999878
1476.433532	889.2000122
1476.955092	888.4000244
1477.476597	885.2000122
1477.998047	888.0
1478.519442	889.0
1479.040783	891.5999756
1479.562068	894.5999756
1480.083299	887.5999756
1480.604475	894.7999878
1481.125596	888.5999756
1481.646663	894.2000122
1482.167674	885.0
1482.688631	885.5999756
1483.209533	886.4000244
1483.73038	884.2000122
1484.251172	889.7999878
1484.771909	884.2000122
1485.292592	886.0
1485.81322	887.7999878
1486.333793	887.4000244
1486.854311	891.4000244
1487.374775	885.4000244
1487.895183	885.5999756
1488.415537	885.0
1488.935836	883.2000122
1489.456081	880.5999756
1489.97627	877.7999878
1490.496405	884.7999878
1491.016485	888.5999756
1491.536511	885.4000244
1492.056481	885.4000244
1492.576397	885.5999756
1493.096258	881.5999756
1493.616064	875.7999878
1494.135816	879.7999878
1494.655513	888.0
1495.175155	886.4000244
1495.694742	877.4000244
1496.214274	885.0
1496.733752	885.4000244
1497.253175	884.0
1497.772544	885.5999756
1498.291858	887.5999756
1498.811116	887.4000244
1499.330321	889.7999878
1499.84947	888.7999878
1500.368565	878.5999756
1500.887605	880.2000122
1501.406591	888.7999878
1501.925521	879.5999756
1502.444397	881.2000122
1502.963219	887.0
1503.481985	885.7999878
1504.000697	888.2000122
1504.519355	879.0
1505.037957	881.7999878
1505.556505	880.2000122
1506.074999	880.0
1506.593437	875.4000244
1507.111821	873.0
1507.63015	874.5999756
1508.148425	877.4000244
1508.666645	882.5999756
1509.18481	883.7999878
1509.702921	874.5999756
1510.220977	885.0
1510.738979	893.0
1511.256925	886.2000122
1511.774817	873.4000244
1512.292655	888.2000122
1512.810438	873.0
1513.328166	879.4000244
1513.84584	886.2000122
1514.363459	881.0
1514.881023	882.2000122
1515.398533	871.0
1515.915988	876.2000122
1516.433389	872.0
1516.950734	884.2000122
1517.468026	875.7999878
1517.985263	880.2000122
1518.502445	868.4000244
1519.019572	873.0
1519.536645	884.2000122
1520.053664	883.7999878
1520.570628	880.5999756
1521.087537	876.7999878
1521.604392	880.7999878
1522.121192	876.0
1522.637937	884.0
1523.154628	877.2000122
1523.671265	884.2000122
1524.187847	889.4000244
1524.704374	877.2000122
1525.220847	888.2000122
1525.737265	870.2000122
1526.253629	881.0
1526.769938	886.7999878
1527.286192	882.7999878
1527.802392	878.4000244
1528.318538	877.4000244
1528.834629	884.7999878
1529.350666	878.5999756
1529.866648	882.4000244
1530.382575	886.5999756
1530.898448	876.0
1531.414266	880.4000244
1531.93003	869.2000122
1532.44574	878.4000244
1532.961395	884.7999878
1533.476995	878.2000122
1533.992541	872.0
1534.508033	869.7999878
1535.02347	872.2000122
1535.538852	879.5999756
1536.05418	872.2000122
1536.569454	882.2000122
1537.084673	880.2000122
1537.599837	877.4000244
1538.114947	879.2000122
1538.630003	878.4000244
1539.145004	872.4000244
1539.659951	878.2000122
1540.174843	876.4000244
1540.689681	876.7999878
1541.204465	879.4000244
1541.719194	876.4000244
1542.233868	875.7999878
1542.748488	875.4000244
1543.263054	878.7999878
1543.777565	879.0
1544.292022	878.5999756
1544.806424	879.4000244
1545.320772	888.4000244
1545.835066	884.5999756
1546.349305	877.5999756
1546.863489	874.0
1547.37762	869.5999756
1547.891696	876.4000244
1548.405717	875.7999878
1548.919684	879.2000122
1549.433597	877.2000122
1549.947455	880.0
1550.461259	875.2000122
1550.975009	877.0
1551.488704	862.0
1552.002345	868.5999756
1552.515931	882.5999756
1553.029463	868.0
1553.542941	867.5999756
1554.056364	873.2000122
1554.569733	868.2000122
1555.083048	877.5999756
1555.596308	874.4000244
1556.109514	871.0
1556.622665	869.2000122
1557.135762	875.2000122
1557.648805	871.0
1558.161794	879.7999878
1558.674728	878.2000122
1559.187608	876.4000244
1559.700433	875.4000244
1560.213205	876.0
1560.725921	869.2000122
1561.238584	875.7999878
1561.751192	878.0
1562.263746	879.0
1562.776246	870.4000244
1563.288691	876.7999878
1563.801082	870.0
1564.313419	873.2000122
1564.825701	872.7999878
1565.337929	872.4000244
1565.850103	876.0
1566.362223	869.2000122
1566.874288	874.0
1567.386299	870.0
1567.898256	881.0
1568.410158	874.4000244
1568.922007	876.2000122
1569.4338	876.2000122
1569.94554	872.4000244
1570.457226	876.7999878
1570.968857	866.5999756
1571.480434	880.5999756
1571.991956	870.5999756
1572.503425	877.7999878
1573.014839	875.5999756
1573.526199	870.5999756
1574.037505	868.4000244
1574.548756	868.2000122
1575.059953	867.4000244
1575.571096	875.5999756
1576.082185	874.2000122
1576.59322	874.2000122
1577.1042	867.2000122
1577.615126	868.0
1578.125998	873.2000122
1578.636816	868.5999756
1579.14758	875.5999756
1579.658289	870.4000244
1580.168944	875.0
1580.679545	867.0
1581.190092	872.0
1581.700585	879.5999756
1582.211023	867.0
1582.721407	867.2000122
1583.231737	864.4000244
1583.742013	871.0
1584.252235	871.2000122
1584.762403	866.5999756
1585.272516	868.7999878
1585.782575	865.7999878
1586.292581	868.5999756
1586.802532	867.4000244
1587.312428	873.0
1587.822271	863.5999756
1588.33206	870.5999756
1588.841794	872.2000122
1589.351474	869.0
1589.8611	862.2000122
1590.370672	871.0
1590.88019	863.5999756
1591.389654	864.2000122
1591.899064	869.5999756
1592.408419	870.7999878
