1042.452273	940.666687
1043.018714	950.333313
1043.585098	942.666687
1044.151424	954.333313
1044.717692	950.0
1045.283903	946.333313
1045.850056	953.0
1046.416151	952.0
1046.982188	956.333313
1047.548167	945.666687
1048.114089	940.333313
1048.679953	936.0
1049.24576	945.333313
1049.811509	950.0
1050.3772	945.0
1050.942833	950.0
1051.508408	936.333313
1052.073926	943.333313
1052.639387	942.333313
1053.204789	934.333313
1053.770134	951.666687
1054.335421	946.333313
1054.900651	939.666687
1055.465823	933.333313
1056.030937	934.0
1056.595993	947.333313
1057.160992	941.0
1057.725934	953.0
1058.290817	946.333313
1058.855643	947.333313
1059.420411	939.0
1059.985122	945.333313
1060.549775	929.0
1061.114371	939.0
1061.678908	939.333313
1062.243389	946.666687
1062.807811	939.333313
1063.372176	948.333313
1063.936483	946.0
1064.500733	949.666687
1065.064925	932.0
1065.62906	925.0
1066.193137	943.0
1066.757156	942.666687
1067.321118	938.666687
1067.885022	931.0
1068.448869	943.0
1069.012658	932.0
1069.57639	936.666687
1070.140063	941.666687
1070.70368	930.666687
1071.267239	926.0
1071.83074	929.0
1072.394184	941.666687
1072.95757	933.666687
1073.520899	929.666687
1074.08417	935.0
1074.647383	938.333313
1075.21054	950.0
1075.773638	949.0
1076.336679	932.666687
1076.899663	929.0
1077.462589	942.0
1078.025457	937.333313
1078.588268	941.666687
1079.151022	931.666687
1079.713718	935.0
1080.276356	927.666687
1080.838937	929.0
1081.401461	934.333313
1081.963927	933.333313
1082.526336	936.333313
1083.088687	926.0
1083.650981	935.0
1084.213217	922.0
1084.775396	928.0
1085.337517	931.666687
1085.899581	927.666687
1086.461587	928.0
1087.023536	915.333313
1087.585428	933.0
1088.147262	931.0
1088.709039	929.333313
1089.270758	935.666687
1089.83242	924.666687
1090.394024	922.333313
1090.955571	926.666687
1091.517061	915.0
1092.078493	927.0
1092.639868	925.666687
1093.201185	916.0
1093.762445	931.333313
1094.884793	929.0
1095.445881	925.666687
1096.006911	923.333313
1096.567884	921.666687
1097.1288	926.0
1097.689659	927.666687
1098.25046	920.666687
1098.811203	924.666687
1099.37189	926.666687
1099.932518	929.0
1100.49309	920.0
1101.053604	924.0
1101.614061	923.666687
1102.174461	918.0
1102.734803	918.0
1103.295088	925.333313
1103.855316	921.333313
1104.415486	918.0
1104.975599	924.666687
1105.535655	921.0
1106.095653	920.0
1106.655594	914.0
1107.215478	910.0
1107.775305	922.666687
1108.335074	914.333313
1108.894786	925.666687
1109.45444	919.333313
1110.014038	922.666687
1110.573578	910.0
1111.133061	924.0
1111.692486	918.333313
1112.251854	923.333313
1112.811165	919.666687
1113.370419	928.0
1113.929616	907.666687
1114.488755	910.0
1115.047837	910.0
1115.606862	920.0
1116.16583	908.666687
1116.72474	927.333313
1117.283593	926.333313
1117.842389	911.0
1118.401128	911.0
1118.959809	916.0
1119.518433	914.666687
1120.077	908.0
1120.63551	908.0
1121.193963	913.666687
1121.752358	922.333313
1122.310697	901.666687
1122.868978	907.666687
1123.427202	917.0
1123.985368	920.333313
1124.543478	910.333313
1125.10153	907.666687
1125.659526	916.666687
1126.217464	910.333313
1126.775345	914.666687
1127.333168	914.666687
1127.890935	915.0
1128.448644	913.0
1129.006297	915.0
1129.563892	913.0
1130.12143	898.666687
1130.678911	921.0
1131.236335	906.333313
1131.793701	908.333313
1132.351011	925.666687
1132.908263	914.333313
1133.465458	914.0
1134.022597	911.333313
1134.579678	906.666687
1135.136702	921.666687
1135.693669	906.666687
1136.250578	912.333313
1136.807431	910.333313
1137.364227	909.333313
1137.920965	916.0
1138.477647	911.0
1139.034271	908.666687
1139.590839	911.666687
1140.147349	901.666687
1140.703802	909.333313
1141.260198	904.666687
1141.816537	908.0
1142.37282	918.666687
1142.929045	931.0
1143.485213	918.666687
1144.041323	925.0
1144.597377	926.666687
1145.153374	916.333313
1145.709314	913.333313
1146.265197	918.0
1146.821023	924.333313
1147.376792	934.0
1147.932503	918.333313
1148.488158	922.0
1149.043756	941.333313
1149.599297	969.0
1150.154781	1060.666626
1150.710207	1033.666626
1151.265577	950.0
1151.82089	920.666687
1152.376146	913.333313
1152.931345	910.0
1153.486487	922.666687
1154.041572	911.0
1154.5966	907.333313
1155.151571	911.666687
1155.706485	917.666687
1156.261342	907.333313
1156.816142	910.333313
1157.370885	917.333313
1157.925572	913.333313
1158.480201	901.333313
1159.034774	889.0
1159.589289	913.0
1160.143748	913.0
1160.698149	920.333313
1161.252494	914.0
1161.806782	909.666687
1162.361013	909.0
1162.915187	916.0
1163.469304	914.333313
1164.023364	914.333313
1164.577368	906.666687
1165.131314	906.666687
1165.685204	907.0
1166.239036	915.333313
1166.792812	905.0
1167.900193	903.666687
1168.453798	908.666687
1169.007347	912.0
1169.560838	914.666687
1170.114273	926.666687
1170.66765	922.0
1171.220971	914.333313
1171.774235	907.333313
1172.327443	909.0
1172.880593	918.666687
1173.433687	913.0
1173.986723	905.0
1174.539703	910.666687
1175.092626	904.333313
1175.645493	907.666687
1176.198302	903.333313
1176.751055	899.0
1177.303751	912.666687
1177.85639	907.333313
1178.408972	903.666687
1178.961498	902.0
1179.513966	900.0
1180.066378	896.333313
1180.618733	906.0
1181.171032	900.333313
1181.723273	903.666687
1182.275458	895.666687
1182.827586	905.0
1183.379657	915.0
1183.931672	901.666687
1184.48363	903.666687
1185.035531	911.333313
1185.587375	900.666687
1186.139162	902.333313
1186.690893	904.333313
1187.242567	896.333313
1187.794184	908.333313
1188.345745	909.333313
1188.897249	906.666687
1189.448696	891.666687
1190.000086	897.666687
1190.55142	896.333313
1191.102697	903.666687
1191.653918	901.333313
1192.205081	895.666687
1192.756188	906.333313
1193.307238	910.333313
1193.858232	895.333313
1194.409169	898.0
1194.960049	890.0
1195.510872	904.666687
1196.061639	904.0
1196.612349	905.666687
1197.163003	905.0
1197.713599	904.0
1198.264139	899.333313
1198.814623	891.666687
1199.36505	893.333313
1199.91542	893.333313
1200.465734	902.0
1201.01599	894.666687
1201.566191	889.0
1202.116334	902.333313
1202.666421	896.333313
1203.216452	892.0
1203.766425	900.0
1204.316343	900.333313
1204.866203	910.0
1205.416007	895.333313
1205.965754	899.0
1206.515445	896.666687
1207.065079	895.666687
1207.614657	897.666687
1208.164177	897.0
1208.713642	899.666687
1209.26305	903.666687
1209.812401	897.333313
1210.361695	880.666687
1210.910933	890.333313
1211.460115	897.0
1212.00924	898.666687
1212.558308	889.333313
1213.10732	899.333313
1213.656275	896.333313
1214.205174	902.666687
1214.754016	899.0
1215.302801	900.666687
1215.85153	889.666687
1216.400203	895.333313
1216.948819	899.333313
1217.497378	897.666687
1218.045881	904.0
1218.594327	891.0
1219.142717	900.333313
1219.691051	903.0
1220.239327	904.0
1220.787548	900.666687
1221.335712	891.333313
1221.883819	887.666687
1222.43187	888.666687
1222.979864	893.333313
1223.527802	900.666687
1224.075683	883.0
1224.623508	882.666687
1225.171277	890.666687
1225.718989	882.666687
1226.266644	890.666687
1226.814243	885.666687
1227.361786	901.0
1227.909272	891.333313
1228.456702	885.666687
1229.004075	886.666687
1229.551392	889.333313
1230.098652	895.666687
1230.645856	886.666687
1231.193003	897.666687
1231.740094	902.666687
1232.287129	896.666687
1232.834107	885.333313
1233.381029	885.666687
1233.927894	887.666687
1234.474703	891.0
1235.021455	884.333313
1235.568151	897.333313
1236.114791	885.0
1236.661374	896.0
1237.207901	890.333313
1237.754372	886.333313
1238.300786	903.0
1238.847144	889.333313
1239.393445	893.0
1239.93969	894.666687
1240.485879	894.666687
1241.032011	885.666687
1241.578087	889.666687
1242.124106	885.333313
1242.67007	896.333313
1243.215976	884.333313
1243.761827	890.333313
1244.307621	889.0
1244.853359	881.333313
1245.39904	880.333313
1245.944665	886.666687
1246.490234	886.0
1247.035746	886.333313
1247.581203	888.666687
1248.126602	890.666687
1248.671946	888.666687
1249.217233	881.0
1249.762464	882.666687
1250.307638	892.333313
1250.852757	883.666687
1251.397819	891.333313
1251.942824	886.0
1252.487774	881.666687
1253.032667	887.666687
1253.577503	893.0
1254.122284	879.333313
1254.667008	887.333313
1255.211676	884.0
1255.756288	885.0
1256.300843	890.333313
1256.845342	884.666687
1257.389785	886.0
1257.934172	883.666687
1258.478502	886.0
1259.022776	876.666687
1259.566994	893.333313
1260.111156	888.666687
1260.655261	883.0
1261.199311	880.0
1261.743304	887.0
1262.28724	888.666687
1262.831121	883.333313
1263.374945	883.0
1263.918713	900.0
1264.462425	897.333313
1265.006081	895.0
1265.54968	899.666687
1266.093223	888.333313
1266.636711	892.666687
1267.180141	893.333313
1267.723516	894.333313
1268.266835	880.333313
1268.810097	885.333313
1269.353303	883.666687
1269.896453	875.0
1270.439547	884.666687
1270.982584	888.0
1271.525566	883.666687
1272.068491	888.333313
1272.61136	886.333313
1273.154173	881.666687
1273.69693	875.333313
1274.239631	878.666687
1274.782275	873.333313
1275.324864	882.666687
1275.867396	886.333313
1276.409872	884.666687
1276.952292	878.666687
1277.494656	880.0
1278.036964	873.333313
1278.579215	884.0
1279.121411	877.0
1279.66355	877.666687
1280.205634	877.333313
1280.747661	892.0
1281.289632	879.333313
1281.831547	891.333313
1282.373406	890.0
1282.915209	898.0
1283.456955	928.0
1283.998646	994.333313
1284.540281	1118.666626
1285.081859	1191.0
1285.623381	1046.0
1286.164848	935.0
1286.706258	900.666687
1287.247612	881.666687
1287.788911	891.0
1288.330153	883.333313
1288.871339	880.666687
1289.412469	883.333313
1289.953543	873.333313
1290.494561	884.0
1291.035523	882.333313
1291.576428	879.666687
1292.117278	879.666687
1292.658072	873.333313
1293.19881	864.0
1293.739492	874.666687
1294.280118	880.333313
1294.820687	877.666687
1295.361201	889.333313
1295.901659	880.333313
1296.442061	875.666687
1296.982406	873.0
1297.522696	877.333313
1298.06293	880.0
1298.603108	875.666687
1299.143229	879.0
1299.683295	877.0
1300.223305	870.0
1300.763259	869.666687
1301.303157	876.0
1301.842999	877.666687
1302.382785	875.666687
1302.922515	872.666687
1303.462189	881.0
1304.001807	870.0
1304.541369	860.0
1305.080875	871.0
1305.620326	874.0
1306.15972	872.333313
1306.699058	859.333313
1307.238341	865.333313
1307.777567	873.0
1308.316738	873.333313
1308.855853	871.0
1309.394912	871.333313
1309.933915	867.666687
1310.472862	875.666687
1311.011753	868.0
1311.550588	871.333313
1312.089367	872.333313
1312.62809	872.666687
1313.166758	870.666687
1313.70537	865.0
1314.243925	865.0
1314.782425	875.0
1315.320869	871.0
1315.859257	874.666687
1316.397589	869.333313
1316.935866	871.666687
1317.474086	877.333313
1318.012251	867.0
1318.55036	879.0
1319.088413	876.333313
1319.62641	868.666687
1320.164351	868.0
1320.702236	860.666687
1321.240066	861.666687
1321.777839	867.666687
1322.315557	871.0
1322.853219	873.333313
1323.390826	869.333313
1323.928376	863.0
1324.465871	870.0
1325.003309	871.666687
1325.540692	867.0
1326.07802	870.0
1326.615291	875.333313
1327.152506	877.0
1327.689666	873.666687
1328.22677	866.666687
1328.763818	866.0
1329.300811	872.666687
1329.837747	863.333313
1330.374628	875.666687
1330.911453	863.333313
1331.448222	866.333313
1331.984936	863.333313
1332.521594	866.0
1333.058196	870.333313
1333.594742	866.0
1334.131232	871.666687
1334.667667	864.333313
1335.204046	869.0
1335.740369	872.333313
1336.276637	864.666687
1336.812848	874.0
1337.349004	861.666687
1337.885105	872.333313
1338.421149	863.0
1338.957138	871.333313
1339.493071	862.666687
1340.028949	867.666687
1340.56477	872.333313
1341.100536	868.666687
1341.636246	871.0
1342.171901	863.333313
1342.7075	855.333313
1343.243043	856.0
1343.77853	875.0
1344.313962	868.0
1344.849338	866.666687
1345.384659	865.0
1345.919923	879.333313
1346.455133	868.333313
1346.990286	868.0
1347.525384	865.0
1348.060426	856.0
1348.595412	864.0
1349.130343	861.333313
1349.665218	863.0
1350.200037	858.333313
1350.734801	865.333313
1351.269509	869.0
1351.804162	875.333313
1352.338758	860.0
1352.8733	873.333313
1353.407785	865.333313
1353.942215	867.666687
1354.476589	866.666687
1355.010908	855.666687
1355.545171	869.0
1356.079379	864.0
1356.61353	869.333313
1357.147627	868.666687
1357.681667	859.0
1358.215652	868.0
1358.749582	869.0
1359.283456	864.0
1359.817274	864.333313
1360.351037	860.333313
1360.884744	865.333313
1361.418395	862.0
1361.951991	862.666687
1362.485531	864.0
1363.019016	858.0
1363.552445	854.0
1364.085819	858.666687
1364.619137	855.333313
1365.1524	856.333313
1365.685607	853.0
1366.218758	864.333313
1366.751854	860.0
1367.284894	852.0
1367.817879	867.0
1368.350808	866.333313
1368.883682	859.666687
1369.4165	858.333313
1369.949263	863.333313
1370.48197	873.333313
1371.014622	870.333313
1371.547218	866.0
1372.079758	856.666687
1372.612244	852.333313
1373.144673	864.0
1373.677047	848.666687
1374.209366	871.666687
1374.741629	858.0
1375.273836	857.666687
1375.805989	860.333313
1376.338085	854.333313
1376.870126	862.0
1377.402112	864.333313
1377.934042	855.666687
1378.465917	869.333313
1378.997736	861.666687
1379.5295	859.666687
1380.061208	859.333313
1380.592861	860.666687
1381.124459	859.333313
1381.656	856.666687
1382.187487	865.666687
1382.718918	853.666687
1383.250294	871.0
1383.781614	859.333313
1384.312879	863.333313
1384.844088	869.666687
1385.375242	867.333313
1385.90634	875.666687
1386.437383	874.333313
1386.968371	927.0
1387.499303	1016.666687
1388.03018	1307.0
1388.561001	1410.0
1389.091767	1073.0
1389.622478	917.666687
1390.153133	885.333313
1390.683733	863.666687
1391.214277	859.333313
1391.744766	862.666687
1392.2752	851.333313
1392.805578	859.0
1393.335901	863.333313
1393.866168	862.0
1394.396381	863.0
1394.926537	859.333313
1395.456639	850.333313
1395.986685	858.0
1396.516675	864.0
1397.046611	860.333313
1397.576491	846.666687
1398.106315	857.0
1398.636084	857.0
1399.165798	851.666687
1399.695457	855.0
1400.22506	855.666687
1400.754608	850.666687
1401.284101	855.0
1401.813538	858.0
1402.34292	847.333313
1402.872247	854.0
1403.401518	847.0
1403.930734	852.666687
1404.459895	849.0
1404.989	844.333313
1405.51805	860.0
1406.047045	851.333313
1406.575984	848.333313
1407.104869	853.666687
1407.633697	865.0
1408.162471	859.666687
1408.691189	867.0
1409.219852	881.0
1409.74846	899.0
1410.277013	876.333313
1410.80551	859.333313
1411.333952	862.666687
1411.862339	867.0
1412.39067	857.666687
1412.918946	851.0
1413.447167	862.666687
1413.975333	860.666687
1414.503444	845.666687
1415.031499	857.333313
1415.559499	860.666687
1416.087444	852.666687
1416.615333	847.333313
1417.143167	860.0
1417.670947	850.333313
1418.19867	854.0
1418.726339	846.666687
1419.253952	845.0
1419.781511	849.666687
1420.309014	857.0
1420.836461	840.0
1421.363854	847.0
1421.891191	852.666687
1422.418474	852.666687
1422.945701	849.666687
1423.472872	844.333313
1423.999989	848.0
1424.52705	843.333313
1425.054057	858.666687
1425.581008	856.666687
1426.107904	845.666687
1426.634745	851.333313
1427.16153	846.333313
1427.688261	848.0
1428.214936	848.333313
1428.741556	844.333313
1429.268121	849.0
1429.794631	847.666687
1430.321085	840.0
1430.847485	842.0
1431.373829	855.333313
1431.900118	854.333313
1432.426353	842.333313
1432.952532	849.333313
1433.478655	845.333313
1434.004724	838.0
1434.530738	843.666687
1435.056696	846.0
1435.5826	845.666687
1436.108448	844.333313
1436.634241	850.0
1437.159979	842.666687
1437.685662	844.0
1438.21129	843.333313
1438.736863	850.666687
1439.262381	843.333313
1439.787843	839.666687
1440.313251	842.0
1440.838603	839.333313
1441.3639	847.666687
1441.889143	844.666687
1442.41433	844.333313
1442.939462	841.666687
1443.464539	846.666687
1443.989561	840.666687
1444.514528	841.333313
1445.03944	848.0
1445.564297	846.666687
1446.089099	851.666687
1446.613846	846.333313
1447.138537	839.666687
1447.663174	835.333313
1448.187756	847.0
1448.712282	844.666687
1449.236754	843.666687
1449.761171	847.333313
1450.285532	843.666687
1450.809839	849.666687
1451.33409	847.333313
1451.858287	836.666687
1452.382428	842.666687
1452.906515	843.0
1453.430546	843.333313
1453.954523	842.666687
1454.478444	843.0
1455.002311	837.666687
1455.526123	846.0
1456.049879	834.666687
1456.573581	838.666687
1457.097227	834.0
1457.620819	840.0
1458.144356	839.333313
1458.667837	844.0
1459.191264	839.666687
1459.714636	841.333313
1460.237952	845.0
1460.761214	852.333313
1461.284421	845.0
1461.807573	839.333313
1462.33067	834.666687
1462.853712	843.333313
1463.376699	843.0
1463.899632	841.666687
1464.422509	840.0
1464.945331	829.333313
1465.468099	838.333313
1465.990811	843.666687
1466.513469	843.666687
1467.036071	831.333313
1467.558619	839.0
1468.081112	833.0
1468.60355	837.666687
1469.125933	836.333313
1469.648261	842.333313
1470.170534	835.333313
1470.692752	829.0
1471.214916	839.666687
1471.737024	838.333313
1472.259078	841.0
1472.781077	839.0
1473.303021	839.666687
1473.82491	834.666687
1474.346744	841.666687
1474.868523	843.0
1475.390248	844.666687
1475.911917	844.333313
1476.433532	836.666687
1476.955092	835.333313
1477.476597	833.666687
1477.998047	839.333313
1478.519442	832.666687
1479.040783	835.0
1479.562068	833.333313
1480.083299	833.666687
1480.604475	836.333313
1481.125596	847.666687
1481.646663	829.0
1482.167674	837.333313
1482.688631	843.0
1483.209533	832.0
1483.73038	833.333313
1484.251172	829.0
1484.771909	834.333313
1485.292592	835.333313
1485.81322	826.666687
1486.333793	827.0
1486.854311	844.666687
1487.374775	833.666687
1487.895183	830.333313
1488.415537	837.666687
1488.935836	833.333313
1489.456081	830.666687
1489.97627	828.666687
1490.496405	834.333313
1491.016485	834.0
1491.536511	830.666687
1492.056481	828.666687
1492.576397	823.333313
1493.096258	834.666687
1493.616064	826.666687
1494.135816	831.0
1494.655513	839.333313
1495.175155	829.666687
1495.694742	823.333313
1496.214274	831.0
1496.733752	838.333313
1497.253175	832.0
1497.772544	827.666687
1498.291858	835.666687
1498.811116	829.0
1499.330321	825.333313
1500.887605	844.0
1501.406591	829.666687
1501.925521	829.0
1502.444397	825.333313
1502.963219	833.666687
1503.481985	835.333313
1504.000697	831.666687
1504.519355	831.666687
1505.037957	822.666687
1505.556505	827.333313
1506.074999	832.0
1506.593437	829.333313
1507.111821	833.0
1507.63015	838.333313
1508.148425	836.666687
1508.666645	828.0
1509.18481	823.666687
1509.702921	828.0
1510.220977	833.333313
1510.738979	837.666687
1511.256925	827.666687
1511.774817	822.333313
1512.292655	826.333313
1512.810438	829.333313
1513.328166	830.333313
1513.84584	828.0
1514.363459	825.333313
1514.881023	831.333313
1515.398533	828.666687
1515.915988	828.333313
1516.433389	823.0
1516.950734	826.0
1517.468026	824.666687
1517.985263	826.666687
1518.502445	826.666687
1519.019572	828.0
1519.536645	830.333313
1520.053664	832.666687
1520.570628	828.0
1521.087537	832.0
1521.604392	832.0
1522.121192	827.333313
1522.637937	826.666687
1523.154628	830.666687
1523.671265	832.666687
1524.187847	833.333313
1524.704374	827.0
1525.220847	833.0
1525.737265	838.666687
1526.253629	835.666687
1526.769938	825.666687
1527.286192	833.666687
1527.802392	832.0
1528.318538	829.666687
1528.834629	830.666687
1529.350666	832.333313
1529.866648	823.666687
1530.382575	833.0
1530.898448	826.666687
1531.414266	828.666687
1531.93003	828.666687
1532.44574	831.333313
1532.961395	833.0
1533.476995	829.0
1533.992541	823.333313
1534.508033	832.666687
1535.02347	820.333313
1535.538852	823.666687
1536.05418	820.333313
1536.569454	837.666687
1537.084673	826.333313
1538.114947	821.666687
1538.630003	833.333313
1539.145004	825.333313
1539.659951	831.0
1540.174843	830.333313
1540.689681	828.0
1541.204465	825.0
1541.719194	834.666687
1542.233868	825.333313
1542.748488	826.333313
1543.263054	832.666687
1543.777565	829.666687
1544.292022	830.333313
1544.806424	825.333313
1545.320772	821.0
1545.835066	825.666687
1546.349305	830.333313
1546.863489	811.666687
1547.37762	821.666687
1547.891696	830.666687
1548.405717	830.666687
1548.919684	831.0
1549.433597	821.333313
1549.947455	828.0
1550.461259	817.666687
1550.975009	831.0
1551.488704	829.333313
1552.002345	825.666687
1552.515931	816.333313
1553.029463	824.666687
1553.542941	828.666687
1554.056364	829.0
1554.569733	833.0
1555.083048	823.666687
1555.596308	829.333313
1556.109514	823.333313
1556.622665	832.333313
1557.135762	827.333313
1557.648805	828.333313
1558.161794	831.0
1558.674728	828.333313
1559.187608	825.666687
1559.700433	826.333313
1560.213205	835.0
1560.725921	830.333313
1561.238584	833.333313
1561.751192	822.333313
1562.263746	832.333313
1562.776246	822.666687
1563.288691	823.333313
1563.801082	823.333313
1564.313419	822.333313
1564.825701	822.0
1565.337929	831.333313
1565.850103	830.0
1566.362223	827.0
1566.874288	829.0
1567.386299	826.666687
1567.898256	825.666687
1568.410158	829.333313
1568.922007	829.666687
1569.4338	821.666687
1569.94554	833.0
1570.457226	827.333313
1570.968857	826.666687
1571.480434	818.666687
1571.991956	822.333313
1572.503425	816.666687
1573.014839	830.333313
1573.526199	827.666687
1574.037505	820.333313
1574.548756	824.0
1575.059953	818.333313
1575.571096	824.333313
1576.082185	819.666687
1576.59322	812.333313
1577.1042	814.333313
1577.615126	826.333313
1578.125998	831.0
1578.636816	820.333313
1579.14758	827.333313
1579.658289	816.666687
1580.168944	822.666687
1580.679545	815.333313
1581.190092	820.0
1581.700585	826.333313
1582.211023	819.0
1582.721407	816.666687
1583.231737	817.0
1583.742013	819.333313
1584.252235	825.666687
1584.762403	825.333313
1585.272516	816.0
1585.782575	821.666687
1586.292581	822.666687
1586.802532	829.666687
1587.312428	824.0
1587.822271	814.333313
1588.33206	820.0
1588.841794	822.0
1589.351474	826.0
1589.8611	823.666687
1590.370672	825.666687
1590.88019	817.0
1591.389654	821.666687
1591.899064	819.666687
1592.408419	820.333313
