1042.452273	1359.599976
1043.018714	1366.0
1043.585098	1371.0
1044.151424	1379.0
1044.717692	1375.199951
1045.283903	1387.199951
1045.850056	1348.800049
1046.416151	1363.400024
1046.982188	1375.599976
1047.548167	1351.800049
1048.114089	1346.199951
1048.679953	1352.400024
1049.24576	1352.0
1049.811509	1364.599976
1050.3772	1356.400024
1050.942833	1365.199951
1051.508408	1361.599976
1052.073926	1353.199951
1052.639387	1359.199951
1053.204789	1362.599976
1053.770134	1367.400024
1054.335421	1362.599976
1054.900651	1355.599976
1055.465823	1359.599976
1056.030937	1360.0
1056.595993	1359.199951
1057.160992	1357.400024
1057.725934	1355.0
1058.290817	1372.199951
1058.855643	1341.199951
1059.420411	1336.199951
1059.985122	1352.0
1060.549775	1343.400024
1061.114371	1335.400024
1061.678908	1352.400024
1062.243389	1345.400024
1062.807811	1327.199951
1063.372176	1359.0
1063.936483	1348.0
1064.500733	1348.0
1065.064925	1346.400024
1065.62906	1349.800049
1066.193137	1343.0
1066.757156	1334.0
1067.321118	1341.599976
1067.885022	1331.199951
1068.448869	1351.400024
1069.012658	1348.0
1069.57639	1337.800049
1070.140063	1360.0
1070.70368	1341.800049
1071.267239	1349.0
1071.83074	1338.800049
1072.394184	1330.199951
1072.95757	1336.0
1073.520899	1337.400024
1074.08417	1350.0
1074.647383	1335.800049
1075.21054	1347.400024
1075.773638	1343.0
1076.336679	1334.400024
1076.899663	1324.400024
1077.462589	1344.400024
1078.025457	1336.0
1078.588268	1334.800049
1079.151022	1339.199951
1079.713718	1324.199951
1080.276356	1316.199951
1080.838937	1322.800049
1081.401461	1322.0
1081.963927	1328.199951
1082.526336	1331.800049
1083.088687	1335.400024
1083.650981	1321.400024
1084.213217	1317.800049
1084.775396	1316.400024
1085.337517	1324.599976
1085.899581	1319.599976
1086.461587	1341.0
1087.023536	1329.199951
1087.585428	1334.599976
1088.147262	1323.400024
1088.709039	1324.599976
1089.270758	1317.800049
1089.83242	1321.0
1090.394024	1317.0
1090.955571	1333.0
1091.517061	1312.199951
1092.078493	1311.0
1092.639868	1302.199951
1093.201185	1317.199951
1093.762445	1303.199951
1094.323648	1317.0
1094.884793	1291.599976
1095.445881	1325.599976
1096.006911	1317.599976
1096.567884	1313.599976
1097.1288	1315.599976
1097.689659	1310.0
1098.25046	1307.199951
1098.811203	1324.800049
1099.37189	1304.0
1099.932518	1314.599976
1100.49309	1300.400024
1101.053604	1300.599976
1101.614061	1308.400024
1102.174461	1318.0
1102.734803	1293.400024
1103.295088	1311.400024
1103.855316	1296.800049
1104.415486	1308.199951
1104.975599	1317.800049
1105.535655	1314.199951
1106.095653	1301.599976
1106.655594	1296.599976
1107.215478	1296.800049
1107.775305	1298.0
1108.335074	1296.599976
1108.894786	1300.199951
1109.45444	1285.0
1110.014038	1306.0
1110.573578	1291.0
1111.133061	1298.199951
1111.692486	1283.199951
1112.251854	1291.0
1112.811165	1286.599976
1113.370419	1305.599976
1113.929616	1288.0
1114.488755	1285.599976
1115.047837	1270.599976
1115.606862	1282.800049
1116.16583	1297.599976
1116.72474	1301.599976
1117.283593	1293.400024
1117.842389	1296.400024
1118.401128	1285.800049
1118.959809	1294.599976
1119.518433	1275.0
1120.077	1285.599976
1120.63551	1287.800049
1121.193963	1276.199951
1121.752358	1274.0
1122.310697	1288.400024
1122.868978	1283.599976
1123.427202	1275.400024
1123.985368	1282.0
1124.543478	1291.400024
1125.10153	1273.199951
1125.659526	1277.199951
1126.217464	1283.0
1126.775345	1277.800049
1127.333168	1273.400024
1127.890935	1280.0
1128.448644	1275.599976
1129.006297	1278.199951
1129.563892	1277.400024
1130.12143	1281.800049
1130.678911	1272.800049
1131.236335	1267.0
1131.793701	1268.800049
1132.351011	1289.0
1132.908263	1273.800049
1133.465458	1287.599976
1134.022597	1271.599976
1134.579678	1273.800049
1135.136702	1288.400024
1135.693669	1283.800049
1136.250578	1295.400024
1136.807431	1287.0
1137.364227	1297.599976
1137.920965	1289.400024
1138.477647	1288.599976
1139.034271	1280.800049
1139.590839	1283.599976
1140.147349	1280.400024
1140.703802	1294.800049
1141.260198	1288.400024
1141.816537	1279.199951
1142.37282	1289.199951
1142.929045	1291.0
1143.485213	1300.599976
1144.041323	1291.400024
1144.597377	1282.0
1145.153374	1278.800049
1145.709314	1288.599976
1146.265197	1296.199951
1146.821023	1305.199951
1147.376792	1310.800049
1147.932503	1287.800049
1148.488158	1295.199951
1149.043756	1323.599976
1149.599297	1391.599976
1150.154781	1582.400024
1150.710207	1533.599976
1151.265577	1353.599976
1151.82089	1315.400024
1152.376146	1291.800049
1152.931345	1290.400024
1153.486487	1276.0
1154.041572	1279.599976
1154.5966	1275.800049
1155.151571	1283.400024
1155.706485	1283.800049
1156.261342	1292.400024
1156.816142	1272.0
1157.370885	1268.599976
1157.925572	1279.0
1158.480201	1278.800049
1159.034774	1277.800049
1159.589289	1270.0
1160.143748	1268.199951
1160.698149	1270.0
1161.252494	1272.800049
1161.806782	1265.800049
1162.361013	1276.199951
1162.915187	1276.0
1163.469304	1268.199951
1164.023364	1278.599976
1164.577368	1266.800049
1165.131314	1249.400024
1165.685204	1275.800049
1166.239036	1265.199951
1166.792812	1270.0
1167.346531	1267.800049
1167.900193	1273.400024
1168.453798	1262.199951
1169.007347	1269.800049
1169.560838	1279.599976
1170.114273	1261.0
1170.66765	1272.599976
1171.220971	1282.800049
1171.774235	1268.199951
1172.327443	1267.400024
1172.880593	1282.800049
1173.433687	1260.800049
1173.986723	1269.199951
1174.539703	1268.199951
1175.092626	1273.400024
1175.645493	1262.400024
1176.198302	1252.800049
1176.751055	1247.599976
1177.303751	1272.400024
1177.85639	1262.0
1178.408972	1256.0
1178.961498	1270.400024
1179.513966	1261.800049
1180.066378	1263.400024
1180.618733	1255.800049
1181.171032	1255.0
1181.723273	1256.800049
1182.275458	1262.199951
1182.827586	1241.199951
1183.379657	1259.400024
1183.931672	1258.400024
1184.48363	1267.400024
1185.035531	1268.599976
1185.587375	1260.800049
1186.139162	1258.400024
1186.690893	1257.400024
1187.242567	1247.400024
1187.794184	1267.0
1188.345745	1251.599976
1188.897249	1254.599976
1189.448696	1247.400024
1190.000086	1267.0
1190.55142	1264.599976
1191.102697	1255.400024
1191.653918	1255.0
1192.205081	1252.400024
1192.756188	1247.599976
1193.307238	1265.199951
1193.858232	1251.199951
1194.409169	1251.400024
1194.960049	1262.199951
1195.510872	1247.400024
1196.061639	1252.800049
1196.612349	1253.800049
1197.163003	1250.599976
1197.713599	1243.199951
1198.264139	1244.599976
1198.814623	1245.599976
1199.36505	1252.0
1199.91542	1249.0
1200.465734	1246.0
1201.01599	1236.0
1201.566191	1239.800049
1202.116334	1249.800049
1202.666421	1249.400024
1203.216452	1232.400024
1203.766425	1255.199951
1204.316343	1232.599976
1204.866203	1237.800049
1205.416007	1247.800049
1205.965754	1236.400024
1206.515445	1243.0
1207.065079	1241.199951
1207.614657	1242.599976
1208.164177	1234.599976
1208.713642	1245.199951
1209.26305	1239.400024
1209.812401	1236.800049
1210.361695	1232.0
1210.910933	1241.800049
1211.460115	1229.800049
1212.00924	1241.0
1212.558308	1234.0
1213.10732	1238.599976
1213.656275	1242.800049
1214.205174	1237.199951
1214.754016	1243.0
1215.302801	1244.599976
1215.85153	1224.400024
1216.400203	1238.199951
1216.948819	1233.199951
1217.497378	1230.0
1218.045881	1236.199951
1218.594327	1233.599976
1219.142717	1229.400024
1219.691051	1233.199951
1220.239327	1231.800049
1220.787548	1234.400024
1221.335712	1224.800049
1221.883819	1226.599976
1222.43187	1235.599976
1222.979864	1238.400024
1223.527802	1228.800049
1224.075683	1242.199951
1224.623508	1226.199951
1225.171277	1229.800049
1225.718989	1222.800049
1226.266644	1230.400024
1226.814243	1229.0
1227.361786	1228.599976
1227.909272	1219.800049
1228.456702	1224.400024
1229.004075	1227.199951
1229.551392	1223.0
1230.098652	1233.800049
1230.645856	1217.0
1231.193003	1232.0
1231.740094	1225.800049
1232.287129	1224.199951
1232.834107	1223.0
1233.381029	1225.800049
1233.927894	1230.599976
1234.474703	1226.400024
1235.021455	1222.800049
1235.568151	1233.800049
1236.114791	1229.400024
1236.661374	1227.800049
1237.207901	1217.199951
1237.754372	1225.400024
1238.300786	1227.400024
1238.847144	1224.199951
1239.393445	1219.199951
1239.93969	1221.800049
1240.485879	1230.599976
1241.032011	1220.400024
1241.578087	1219.400024
1242.124106	1208.800049
1242.67007	1224.400024
1243.215976	1228.199951
1243.761827	1210.599976
1244.307621	1221.400024
1244.853359	1226.199951
1245.39904	1225.800049
1245.944665	1221.0
1246.490234	1216.599976
1247.035746	1231.0
1247.581203	1212.400024
1248.126602	1213.800049
1248.671946	1228.199951
1249.217233	1219.800049
1249.762464	1215.400024
1250.307638	1210.800049
1250.852757	1210.0
1251.397819	1217.0
1251.942824	1212.599976
1252.487774	1224.599976
1253.032667	1222.199951
1253.577503	1221.599976
1254.122284	1227.199951
1254.667008	1218.800049
1255.211676	1208.400024
1255.756288	1203.800049
1256.300843	1228.800049
1256.845342	1227.400024
1257.389785	1205.400024
1257.934172	1217.400024
1258.478502	1223.400024
1259.022776	1224.599976
1259.566994	1221.800049
1260.111156	1215.400024
1260.655261	1218.199951
1261.199311	1216.599976
1261.743304	1223.0
1262.28724	1225.400024
1262.831121	1227.599976
1263.374945	1223.0
1263.918713	1235.800049
1264.462425	1240.800049
1265.006081	1251.599976
1265.54968	1238.400024
1266.093223	1223.0
1266.636711	1212.599976
1267.180141	1222.400024
1267.723516	1214.199951
1268.266835	1209.599976
1268.810097	1220.0
1269.353303	1208.400024
1269.896453	1216.599976
1270.439547	1199.400024
1270.982584	1203.599976
1271.525566	1219.599976
1272.068491	1201.199951
1272.61136	1203.599976
1273.154173	1195.0
1273.69693	1208.0
1274.239631	1213.800049
1274.782275	1201.599976
1275.324864	1205.800049
1275.867396	1203.0
1276.409872	1208.400024
1276.952292	1199.0
1277.494656	1206.0
1278.036964	1206.400024
1278.579215	1207.400024
1279.121411	1208.800049
1279.66355	1200.199951
1280.205634	1209.400024
1280.747661	1217.199951
1281.289632	1218.800049
1281.831547	1213.199951
1282.373406	1224.400024
1282.915209	1260.599976
1283.456955	1309.599976
1283.998646	1417.599976
1284.540281	1660.400024
1285.081859	1829.800049
1285.623381	1532.0
1286.164848	1308.599976
1286.706258	1244.800049
1287.247612	1221.199951
1287.788911	1197.199951
1288.330153	1208.400024
1288.871339	1200.800049
1289.412469	1198.800049
1289.953543	1211.0
1290.494561	1204.800049
1291.035523	1210.199951
1291.576428	1194.800049
1292.117278	1190.599976
1292.658072	1182.199951
1293.19881	1203.400024
1293.739492	1190.400024
1294.280118	1186.0
1294.820687	1195.199951
1295.361201	1182.599976
1295.901659	1202.599976
1296.442061	1192.599976
1296.982406	1191.400024
1297.522696	1185.800049
1298.06293	1195.599976
1298.603108	1196.800049
1299.143229	1177.400024
1299.683295	1188.199951
1300.223305	1179.400024
1300.763259	1190.599976
1301.303157	1188.800049
1301.842999	1186.199951
1302.382785	1190.599976
1302.922515	1195.800049
1303.462189	1195.199951
1304.001807	1191.0
1304.541369	1185.400024
1305.080875	1186.0
1305.620326	1191.0
1306.15972	1185.0
1306.699058	1182.800049
1307.238341	1183.400024
1307.777567	1185.599976
1308.316738	1182.800049
1308.855853	1187.199951
1309.394912	1177.599976
1309.933915	1193.800049
1310.472862	1185.0
1311.011753	1180.400024
1311.550588	1190.599976
1312.089367	1178.599976
1312.62809	1179.800049
1313.166758	1187.0
1313.70537	1185.199951
1314.243925	1177.199951
1314.782425	1171.800049
1315.320869	1175.199951
1315.859257	1179.0
1316.397589	1179.199951
1316.935866	1177.599976
1317.474086	1184.400024
1318.012251	1187.400024
1318.55036	1160.0
1319.088413	1170.400024
1319.62641	1174.599976
1320.164351	1172.199951
1320.702236	1170.800049
1321.240066	1179.199951
1321.777839	1167.199951
1322.315557	1176.199951
1322.853219	1173.400024
1323.390826	1170.599976
1323.928376	1174.800049
1324.465871	1169.400024
1325.003309	1159.0
1325.540692	1177.0
1326.07802	1185.400024
1326.615291	1173.800049
1327.152506	1174.800049
1327.689666	1168.800049
1328.22677	1169.599976
1328.763818	1180.199951
1329.300811	1175.0
1329.837747	1163.0
1330.374628	1163.199951
1330.911453	1175.199951
1331.448222	1160.199951
1331.984936	1177.599976
1332.521594	1167.400024
1333.058196	1169.400024
1333.594742	1165.400024
1334.131232	1174.0
1334.667667	1166.199951
1335.204046	1171.400024
1335.740369	1168.599976
1336.276637	1170.400024
1336.812848	1146.400024
1337.349004	1160.800049
1337.885105	1167.599976
1338.421149	1170.400024
1338.957138	1170.400024
1339.493071	1169.0
1340.028949	1159.400024
1340.56477	1170.400024
1341.100536	1165.800049
1341.636246	1167.199951
1342.171901	1169.400024
1342.7075	1165.199951
1343.243043	1169.400024
1343.77853	1175.599976
1344.313962	1165.800049
1344.849338	1157.0
1345.384659	1159.0
1345.919923	1166.599976
1346.455133	1146.199951
1346.990286	1170.400024
1347.525384	1158.800049
1348.060426	1167.199951
1348.595412	1148.0
1349.130343	1166.400024
1349.665218	1157.800049
1350.200037	1165.199951
1350.734801	1161.0
1351.269509	1160.0
1351.804162	1161.199951
1352.338758	1156.0
1352.8733	1174.400024
1353.407785	1157.199951
1353.942215	1161.0
1354.476589	1148.599976
1355.010908	1156.0
1355.545171	1152.599976
1356.079379	1155.599976
1356.61353	1145.0
1357.147627	1154.599976
1357.681667	1149.400024
1358.215652	1154.800049
1358.749582	1160.800049
1359.283456	1148.800049
1359.817274	1151.400024
1360.351037	1156.0
1360.884744	1146.599976
1361.418395	1156.0
1361.951991	1161.800049
1362.485531	1149.0
1363.019016	1154.800049
1363.552445	1150.599976
1364.085819	1153.0
1364.619137	1152.800049
1365.1524	1160.400024
1365.685607	1156.0
1366.218758	1149.199951
1366.751854	1150.800049
1367.284894	1146.599976
1367.817879	1150.599976
1368.350808	1158.0
1368.883682	1160.0
1369.4165	1151.400024
1369.949263	1172.800049
1370.48197	1164.800049
1371.014622	1167.199951
1371.547218	1144.0
1372.079758	1139.199951
1372.612244	1153.400024
1373.144673	1154.800049
1373.677047	1152.599976
1374.209366	1146.599976
1374.741629	1147.400024
1375.273836	1149.199951
1375.805989	1149.199951
1376.338085	1154.800049
1376.870126	1142.0
1377.402112	1151.400024
1377.934042	1153.0
1378.465917	1131.0
1378.997736	1155.0
1379.5295	1143.599976
1380.061208	1139.599976
1380.592861	1154.400024
1381.124459	1153.199951
1381.656	1136.800049
1382.718918	1140.0
1383.250294	1153.0
1383.781614	1150.800049
1384.312879	1162.800049
1384.844088	1146.800049
1385.375242	1167.400024
1385.90634	1187.800049
1386.437383	1210.400024
1386.968371	1258.800049
1387.499303	1462.400024
1388.03018	2039.199951
1388.561001	2254.800049
1389.091767	1575.800049
1389.622478	1250.199951
1390.153133	1203.599976
1390.683733	1168.0
1391.214277	1168.800049
1391.744766	1150.400024
1392.2752	1145.0
1392.805578	1145.400024
1393.335901	1140.400024
1393.866168	1148.400024
1394.396381	1153.400024
1394.926537	1138.599976
1395.456639	1137.0
1395.986685	1146.800049
1396.516675	1144.800049
1397.046611	1143.400024
1397.576491	1139.199951
1398.106315	1131.0
1398.636084	1144.800049
1399.165798	1141.800049
1399.695457	1140.400024
1400.22506	1151.599976
1400.754608	1133.400024
1401.284101	1140.800049
1401.813538	1132.400024
1402.34292	1136.199951
1402.872247	1134.599976
1403.401518	1123.0
1403.930734	1143.0
1404.459895	1153.0
1404.989	1153.0
1405.51805	1135.400024
1406.047045	1125.800049
1406.575984	1144.0
1407.104869	1137.199951
1407.633697	1151.199951
1408.162471	1156.199951
1408.691189	1154.0
1409.219852	1178.800049
1409.74846	1219.800049
1410.277013	1193.800049
1410.80551	1166.599976
1411.333952	1148.0
1411.862339	1137.800049
1412.39067	1138.400024
1412.918946	1139.599976
1413.447167	1129.199951
1413.975333	1144.199951
1414.503444	1124.400024
1415.031499	1134.400024
1415.559499	1126.0
1416.087444	1130.400024
1416.615333	1135.599976
1417.143167	1126.599976
1417.670947	1124.199951
1418.19867	1118.800049
1418.726339	1116.400024
1419.253952	1143.400024
1419.781511	1121.599976
1420.309014	1135.800049
1420.836461	1131.599976
1421.363854	1140.800049
1421.891191	1122.0
1422.418474	1126.400024
1422.945701	1120.599976
1423.472872	1115.0
1423.999989	1121.0
1424.52705	1125.199951
1425.054057	1130.800049
1425.581008	1129.199951
1426.107904	1124.199951
1426.634745	1131.599976
1427.16153	1122.0
1427.688261	1119.0
1428.214936	1133.599976
1428.741556	1122.599976
1429.268121	1120.199951
1429.794631	1118.599976
1430.321085	1119.800049
1430.847485	1119.400024
1431.373829	1118.400024
1431.900118	1119.599976
1432.426353	1111.400024
1432.952532	1119.199951
1433.478655	1128.199951
1434.004724	1119.599976
1434.530738	1122.800049
1435.056696	1119.0
1435.5826	1123.400024
1436.108448	1113.599976
1436.634241	1126.400024
1437.159979	1118.199951
1437.685662	1113.400024
1438.21129	1118.0
1438.736863	1121.199951
1439.262381	1112.800049
1439.787843	1124.400024
1440.313251	1118.0
1440.838603	1112.199951
1441.3639	1113.199951
1441.889143	1113.599976
1442.41433	1115.400024
1442.939462	1125.800049
1443.464539	1117.599976
1443.989561	1127.800049
1444.514528	1111.199951
1445.03944	1113.400024
1445.564297	1111.800049
1446.089099	1116.400024
1446.613846	1119.599976
1447.138537	1121.800049
1447.663174	1113.0
1448.187756	1115.199951
1448.712282	1111.599976
1449.236754	1119.800049
1449.761171	1125.599976
1450.285532	1112.199951
1450.809839	1114.400024
1451.33409	1103.599976
1451.858287	1111.199951
1452.382428	1117.199951
1452.906515	1112.800049
1453.430546	1106.800049
1453.954523	1095.599976
1455.002311	1097.0
1455.526123	1103.400024
1456.049879	1113.199951
1456.573581	1112.800049
1457.097227	1117.800049
1457.620819	1108.800049
1458.144356	1103.599976
1458.667837	1113.199951
1459.191264	1106.199951
1459.714636	1117.199951
1460.237952	1111.800049
1460.761214	1109.800049
1461.284421	1106.199951
1461.807573	1103.400024
1462.33067	1105.599976
1462.853712	1111.599976
1463.376699	1108.599976
1463.899632	1109.199951
1464.422509	1103.0
1464.945331	1111.400024
1465.468099	1107.400024
1465.990811	1097.400024
1466.513469	1097.599976
1467.036071	1101.800049
1467.558619	1101.599976
1468.081112	1116.0
1468.60355	1108.0
1469.125933	1100.400024
1469.648261	1101.400024
1470.170534	1100.400024
1470.692752	1092.599976
1471.214916	1106.400024
1471.737024	1095.199951
1472.259078	1095.0
1472.781077	1094.400024
1473.303021	1100.800049
1473.82491	1105.599976
1474.346744	1101.199951
1474.868523	1090.800049
1475.390248	1107.199951
1475.911917	1098.599976
1476.433532	1101.199951
1476.955092	1104.599976
1477.476597	1090.599976
1477.998047	1096.0
1478.519442	1099.800049
1479.040783	1090.800049
1479.562068	1091.400024
1480.083299	1097.800049
1480.604475	1102.199951
1481.125596	1106.0
1481.646663	1100.0
1482.167674	1094.400024
1482.688631	1090.199951
1483.209533	1095.199951
1483.73038	1086.599976
1484.251172	1094.199951
1484.771909	1101.400024
1485.292592	1092.800049
1485.81322	1102.199951
1486.333793	1082.199951
1486.854311	1094.400024
1487.374775	1094.400024
1487.895183	1084.599976
1488.415537	1087.599976
1488.935836	1096.800049
1489.456081	1105.599976
1489.97627	1089.800049
1490.496405	1089.0
1491.016485	1082.0
1491.536511	1093.400024
1492.056481	1088.400024
1492.576397	1091.400024
1493.096258	1090.599976
1493.616064	1095.599976
1494.135816	1086.199951
1494.655513	1087.800049
1495.175155	1092.599976
1495.694742	1081.599976
1496.214274	1089.0
1496.733752	1097.400024
1497.253175	1096.599976
1497.772544	1098.800049
1498.291858	1092.400024
1498.811116	1098.400024
1499.330321	1086.800049
1499.84947	1099.599976
1500.368565	1090.0
1500.887605	1088.199951
1501.406591	1096.800049
1501.925521	1082.400024
1502.444397	1087.800049
1502.963219	1086.599976
1503.481985	1081.0
1504.000697	1083.199951
1504.519355	1074.800049
1505.037957	1084.0
1505.556505	1075.0
1506.074999	1080.599976
1506.593437	1086.599976
1507.111821	1078.0
1507.63015	1070.599976
1508.148425	1078.400024
1508.666645	1092.0
1509.18481	1084.0
1509.702921	1083.0
1510.220977	1085.199951
1510.738979	1085.400024
1511.256925	1086.800049
1511.774817	1087.199951
1512.292655	1088.800049
1512.810438	1083.800049
1513.328166	1086.400024
1513.84584	1083.599976
1514.363459	1078.599976
1514.881023	1093.199951
1515.398533	1084.199951
1515.915988	1080.599976
1516.433389	1082.599976
1516.950734	1072.0
1517.468026	1078.400024
1517.985263	1071.800049
1518.502445	1091.599976
1519.019572	1085.800049
1519.536645	1079.800049
1520.053664	1068.199951
1520.570628	1078.199951
1521.087537	1078.800049
1521.604392	1072.599976
1522.121192	1067.0
1522.637937	1084.800049
1523.154628	1083.400024
1523.671265	1081.0
1524.187847	1087.199951
1524.704374	1073.199951
1525.220847	1081.800049
1525.737265	1091.0
1526.253629	1085.599976
1526.769938	1075.800049
1527.286192	1073.599976
1527.802392	1082.599976
1528.318538	1081.0
1528.834629	1075.599976
1529.350666	1094.199951
1529.866648	1077.400024
1530.382575	1073.199951
1530.898448	1084.800049
1531.414266	1074.0
1531.93003	1077.199951
1532.44574	1070.0
1532.961395	1071.800049
1533.476995	1079.800049
1533.992541	1079.400024
1534.508033	1078.599976
1535.02347	1081.400024
1535.538852	1068.199951
1536.05418	1080.800049
1536.569454	1074.199951
1537.084673	1082.800049
1537.599837	1062.0
1538.114947	1084.0
1538.630003	1077.400024
1539.145004	1070.800049
1539.659951	1084.800049
1540.174843	1073.599976
1540.689681	1081.199951
1541.204465	1081.0
1541.719194	1077.800049
1542.233868	1079.400024
1542.748488	1077.800049
1543.263054	1073.800049
1543.777565	1074.0
1544.292022	1084.199951
1544.806424	1071.0
1545.320772	1071.0
1545.835066	1072.800049
1546.349305	1075.599976
1546.863489	1082.199951
1547.37762	1061.400024
1547.891696	1083.800049
1548.405717	1085.0
1548.919684	1084.599976
1549.433597	1083.400024
1549.947455	1074.599976
1550.461259	1079.400024
1550.975009	1064.800049
1551.488704	1078.800049
1552.002345	1076.199951
1552.515931	1078.400024
1553.029463	1067.800049
1553.542941	1070.800049
1554.056364	1067.400024
1554.569733	1065.0
1555.083048	1072.800049
1555.596308	1079.400024
1556.109514	1073.0
1556.622665	1057.199951
1557.135762	1072.599976
1557.648805	1081.0
1558.161794	1071.800049
1558.674728	1073.400024
1559.187608	1067.0
1559.700433	1070.800049
1560.213205	1068.599976
1560.725921	1063.199951
1561.238584	1068.0
1561.751192	1075.400024
1562.263746	1073.199951
1562.776246	1068.599976
1563.288691	1070.599976
1563.801082	1068.199951
1564.313419	1071.599976
1564.825701	1074.199951
1565.337929	1066.400024
1565.850103	1068.599976
1566.362223	1072.599976
1566.874288	1074.599976
1567.386299	1076.800049
1567.898256	1068.199951
1568.410158	1067.0
1568.922007	1073.599976
1569.4338	1069.400024
1569.94554	1068.199951
1570.457226	1069.800049
1570.968857	1076.199951
1571.480434	1071.400024
1571.991956	1068.800049
1572.503425	1076.199951
1573.014839	1068.800049
1573.526199	1067.0
1574.037505	1057.199951
1574.548756	1068.599976
1575.059953	1054.599976
1575.571096	1070.800049
1576.082185	1065.400024
1576.59322	1075.400024
1577.1042	1075.800049
1577.615126	1066.800049
1578.125998	1070.0
1578.636816	1074.199951
1579.14758	1069.599976
1579.658289	1053.599976
1580.168944	1076.199951
1580.679545	1071.599976
1581.190092	1062.599976
1581.700585	1061.0
1582.211023	1055.800049
1582.721407	1063.800049
1583.231737	1060.199951
1583.742013	1064.800049
1584.252235	1059.400024
1584.762403	1072.599976
1585.272516	1071.0
1585.782575	1059.199951
1586.292581	1062.800049
1586.802532	1066.0
1587.312428	1052.0
1587.822271	1071.400024
1588.33206	1074.599976
1588.841794	1069.800049
1589.351474	1058.400024
1589.8611	1067.0
1590.370672	1071.800049
1590.88019	1053.400024
1591.389654	1070.400024
1591.899064	1053.800049
1592.408419	1060.0
