1042.452273	1544.800049
1043.018714	1558.800049
1043.585098	1549.800049
1044.151424	1538.199951
1044.717692	1537.199951
1045.283903	1549.199951
1045.850056	1559.199951
1046.416151	1562.199951
1046.982188	1537.0
1047.548167	1546.0
1048.114089	1536.400024
1048.679953	1533.199951
1049.24576	1542.800049
1049.811509	1543.199951
1050.3772	1537.400024
1050.942833	1536.0
1051.508408	1531.0
1052.073926	1539.400024
1052.639387	1528.0
1053.204789	1537.0
1053.770134	1528.0
1054.335421	1531.0
1054.900651	1521.0
1055.465823	1531.0
1056.030937	1522.599976
1056.595993	1527.400024
1057.160992	1516.0
1057.725934	1513.599976
1058.290817	1528.199951
1058.855643	1522.800049
1059.420411	1514.400024
1059.985122	1508.800049
1060.549775	1530.400024
1061.114371	1530.400024
1061.678908	1513.0
1062.243389	1516.199951
1062.807811	1523.599976
1063.372176	1522.400024
1063.936483	1504.199951
1064.500733	1522.800049
1065.064925	1508.400024
1065.62906	1528.0
1066.193137	1524.400024
1066.757156	1513.400024
1067.321118	1503.400024
1067.885022	1522.0
1068.448869	1515.199951
1069.012658	1503.199951
1069.57639	1508.0
1070.140063	1497.800049
1070.70368	1511.0
1071.267239	1503.400024
1071.83074	1511.400024
1072.394184	1515.800049
1072.95757	1511.0
1073.520899	1492.0
1074.08417	1499.800049
1074.647383	1500.599976
1075.21054	1485.599976
1075.773638	1512.199951
1076.336679	1503.0
1076.899663	1483.199951
1077.462589	1494.199951
1078.025457	1494.400024
1078.588268	1501.400024
1079.151022	1493.0
1079.713718	1496.800049
1080.276356	1486.0
1080.838937	1511.0
1081.401461	1493.0
1081.963927	1494.199951
1082.526336	1488.599976
1083.088687	1491.400024
1083.650981	1480.0
1084.213217	1485.800049
1084.775396	1466.599976
1085.337517	1480.199951
1085.899581	1486.199951
1086.461587	1486.400024
1087.023536	1471.599976
1087.585428	1473.599976
1088.147262	1489.800049
1088.709039	1488.599976
1089.270758	1471.800049
1089.83242	1478.400024
1090.394024	1481.0
1090.955571	1480.0
1091.517061	1470.400024
1092.078493	1481.599976
1092.639868	1487.199951
1093.201185	1480.800049
1093.762445	1480.0
1094.323648	1469.400024
1094.884793	1466.199951
1095.445881	1483.400024
1096.006911	1464.599976
1096.567884	1458.199951
1097.1288	1469.599976
1097.689659	1466.400024
1098.25046	1456.400024
1098.811203	1459.199951
1099.37189	1473.0
1099.932518	1463.400024
1100.49309	1457.199951
1101.053604	1459.0
1101.614061	1442.599976
1102.174461	1445.400024
1102.734803	1456.400024
1103.295088	1458.599976
1103.855316	1450.199951
1104.415486	1446.400024
1104.975599	1436.199951
1105.535655	1450.800049
1106.095653	1440.199951
1106.655594	1438.0
1107.215478	1445.599976
1107.775305	1441.400024
1108.335074	1442.800049
1108.894786	1438.599976
1109.45444	1429.800049
1110.014038	1455.800049
1110.573578	1444.400024
1111.133061	1445.599976
1111.692486	1444.0
1112.251854	1441.800049
1112.811165	1430.199951
1113.370419	1445.0
1113.929616	1445.199951
1114.488755	1445.199951
1115.047837	1434.199951
1115.606862	1444.599976
1116.16583	1439.599976
1116.72474	1445.199951
1117.283593	1432.400024
1117.842389	1430.0
1118.401128	1423.400024
1118.959809	1416.800049
1119.518433	1426.800049
1120.077	1431.599976
1120.63551	1415.400024
1121.193963	1436.599976
1121.752358	1436.199951
1122.310697	1429.599976
1122.868978	1443.800049
1123.427202	1440.199951
1123.985368	1432.199951
1124.543478	1438.599976
1125.10153	1430.800049
1125.659526	1427.199951
1126.217464	1431.0
1126.775345	1426.800049
1127.333168	1426.800049
1127.890935	1426.0
1128.448644	1424.599976
1129.006297	1428.400024
1129.563892	1420.599976
1130.12143	1440.800049
1130.678911	1412.199951
1131.236335	1413.0
1131.793701	1405.800049
1132.351011	1420.400024
1132.908263	1422.599976
1133.465458	1412.0
1134.022597	1411.800049
1134.579678	1423.599976
1135.136702	1411.0
1135.693669	1416.400024
1136.250578	1423.199951
1136.807431	1424.800049
1137.364227	1408.0
1137.920965	1413.400024
1138.477647	1410.800049
1139.034271	1401.599976
1139.590839	1399.400024
1140.147349	1417.599976
1140.703802	1403.199951
1141.260198	1402.400024
1141.816537	1428.599976
1142.37282	1406.599976
1142.929045	1412.800049
1143.485213	1412.0
1144.041323	1418.0
1144.597377	1409.199951
1145.153374	1415.199951
1145.709314	1409.199951
1146.265197	1408.800049
1146.821023	1410.0
1147.376792	1410.0
1147.932503	1413.599976
1148.488158	1405.800049
1149.043756	1403.800049
1149.599297	1410.199951
1150.154781	1404.400024
1150.710207	1394.0
1151.265577	1411.199951
1151.82089	1407.800049
1152.376146	1413.0
1152.931345	1398.199951
1153.486487	1414.0
1154.041572	1410.199951
1154.5966	1409.599976
1155.151571	1408.800049
1155.706485	1409.199951
1156.261342	1422.400024
1156.816142	1418.0
1157.370885	1419.400024
1157.925572	1405.0
1158.480201	1411.0
1159.034774	1409.0
1159.589289	1401.800049
1160.143748	1407.599976
1160.698149	1406.199951
1161.252494	1393.199951
1161.806782	1405.0
1162.361013	1395.400024
1162.915187	1397.0
1163.469304	1392.0
1164.023364	1403.0
1164.577368	1400.800049
1165.131314	1404.0
1165.685204	1394.199951
1166.239036	1403.0
1166.792812	1380.400024
1167.346531	1403.800049
1167.900193	1384.199951
1168.453798	1398.0
1169.007347	1404.400024
1169.560838	1391.599976
1170.114273	1393.199951
1170.66765	1397.0
1171.220971	1398.400024
1171.774235	1395.800049
1172.327443	1397.599976
1172.880593	1388.800049
1173.433687	1382.800049
1173.986723	1398.199951
1174.539703	1396.400024
1175.092626	1383.0
1175.645493	1386.599976
1176.198302	1393.0
1176.751055	1394.199951
1177.303751	1379.599976
1177.85639	1387.400024
1178.408972	1408.199951
1178.961498	1396.199951
1179.513966	1392.599976
1180.066378	1381.599976
1180.618733	1394.0
1181.171032	1385.0
1181.723273	1386.800049
1182.275458	1405.800049
1182.827586	1392.599976
1183.379657	1388.400024
1183.931672	1374.599976
1184.48363	1371.599976
1185.035531	1379.800049
1185.587375	1395.800049
1186.139162	1381.800049
1186.690893	1384.800049
1187.242567	1374.400024
1187.794184	1392.0
1188.345745	1374.400024
1188.897249	1385.0
1189.448696	1383.0
1190.000086	1371.199951
1190.55142	1374.0
1191.102697	1393.599976
1191.653918	1376.0
1192.205081	1398.0
1192.756188	1383.800049
1193.307238	1394.199951
1193.858232	1368.400024
1194.409169	1368.199951
1194.960049	1378.400024
1195.510872	1386.400024
1196.061639	1369.800049
1196.612349	1375.0
1197.163003	1373.599976
1197.713599	1371.199951
1198.264139	1369.599976
1198.814623	1385.800049
1199.36505	1372.400024
1199.91542	1376.199951
1200.465734	1372.599976
1201.01599	1369.800049
1201.566191	1353.800049
1202.116334	1372.599976
1202.666421	1377.599976
1203.216452	1372.800049
1203.766425	1367.800049
1204.316343	1372.199951
1204.866203	1364.400024
1205.416007	1374.199951
1205.965754	1364.800049
1206.515445	1380.599976
1207.065079	1375.599976
1207.614657	1382.599976
1208.164177	1359.800049
1208.713642	1358.400024
1209.26305	1366.800049
1209.812401	1373.599976
1210.361695	1357.0
1210.910933	1356.400024
1211.460115	1359.199951
1212.00924	1370.599976
1212.558308	1354.400024
1213.10732	1346.599976
1213.656275	1361.599976
1214.205174	1365.0
1214.754016	1359.199951
1215.302801	1371.0
1215.85153	1352.0
1216.400203	1366.400024
1216.948819	1351.400024
1217.497378	1373.800049
1218.045881	1363.800049
1218.594327	1355.800049
1219.142717	1361.599976
1219.691051	1364.0
1220.239327	1358.800049
1220.787548	1348.199951
1221.335712	1353.800049
1221.883819	1335.599976
1222.43187	1355.0
1222.979864	1350.0
1223.527802	1354.0
1224.075683	1357.0
1224.623508	1361.0
1225.171277	1356.0
1225.718989	1340.199951
1226.266644	1344.599976
1226.814243	1342.400024
1227.361786	1361.0
1227.909272	1347.400024
1228.456702	1341.199951
1229.004075	1344.800049
1229.551392	1332.800049
1230.098652	1354.800049
1230.645856	1346.400024
1231.193003	1345.400024
1231.740094	1345.800049
1232.287129	1349.199951
1232.834107	1343.0
1233.381029	1341.0
1233.927894	1346.800049
1234.474703	1357.0
1235.021455	1332.199951
1235.568151	1338.800049
1236.114791	1347.400024
1236.661374	1332.0
1237.207901	1351.800049
1237.754372	1341.599976
1238.300786	1345.400024
1238.847144	1347.199951
1239.393445	1333.800049
1239.93969	1338.199951
1240.485879	1355.800049
1241.032011	1336.599976
1241.578087	1346.800049
1242.124106	1343.0
1242.67007	1337.800049
1243.215976	1323.199951
1243.761827	1338.199951
1244.307621	1330.400024
1244.853359	1343.0
1245.39904	1343.599976
1245.944665	1342.800049
1246.490234	1330.400024
1247.035746	1341.800049
1247.581203	1346.199951
1248.126602	1345.800049
1248.671946	1327.599976
1249.217233	1339.199951
1249.762464	1342.400024
1250.307638	1336.599976
1250.852757	1327.800049
1251.397819	1337.199951
1251.942824	1328.599976
1252.487774	1349.599976
1253.032667	1344.0
1253.577503	1335.800049
1254.122284	1333.800049
1254.667008	1337.599976
1255.211676	1321.199951
1255.756288	1327.800049
1256.300843	1333.599976
1256.845342	1321.800049
1257.389785	1334.400024
1257.934172	1327.800049
1258.478502	1347.800049
1259.022776	1331.199951
1259.566994	1333.199951
1260.111156	1333.599976
1260.655261	1328.400024
1261.199311	1333.800049
1261.743304	1327.199951
1262.28724	1315.400024
1262.831121	1327.400024
1263.374945	1324.0
1263.918713	1326.400024
1264.462425	1326.0
1265.006081	1332.199951
1265.54968	1347.0
1266.093223	1345.199951
1266.636711	1331.599976
1267.180141	1324.599976
1267.723516	1329.400024
1268.266835	1328.800049
1268.810097	1318.800049
1269.353303	1316.599976
1269.896453	1323.400024
1270.439547	1322.599976
1270.982584	1328.800049
1271.525566	1336.400024
1272.068491	1322.199951
1272.61136	1318.199951
1273.154173	1320.599976
1273.69693	1333.800049
1274.239631	1321.199951
1274.782275	1325.400024
1275.324864	1325.599976
1275.867396	1331.0
1276.409872	1317.400024
1276.952292	1324.599976
1277.494656	1309.800049
1278.036964	1318.199951
1278.579215	1319.400024
1279.121411	1322.800049
1279.66355	1319.199951
1280.205634	1318.599976
1280.747661	1318.599976
1281.289632	1300.400024
1281.831547	1322.0
1283.456955	1311.0
1283.998646	1314.0
1284.540281	1343.400024
1285.081859	1378.599976
1285.623381	1489.199951
1286.164848	1425.0
1286.706258	1338.800049
1287.247612	1314.0
1287.788911	1308.400024
1288.330153	1320.0
1288.871339	1308.0
1289.412469	1306.0
1289.953543	1315.599976
1290.494561	1319.400024
1291.035523	1327.599976
1291.576428	1313.800049
1292.117278	1302.800049
1292.658072	1304.0
1293.19881	1305.400024
1293.739492	1304.599976
1294.280118	1300.400024
1294.820687	1310.199951
1295.361201	1312.400024
1295.901659	1306.400024
1296.442061	1319.199951
1296.982406	1301.599976
1297.522696	1302.400024
1298.06293	1314.800049
1298.603108	1317.0
1299.143229	1299.400024
1299.683295	1300.800049
1300.223305	1308.800049
1300.763259	1302.199951
1301.303157	1306.199951
1301.842999	1303.800049
1302.382785	1289.800049
1302.922515	1298.400024
1303.462189	1302.599976
1304.001807	1306.800049
1304.541369	1296.800049
1305.080875	1298.0
1305.620326	1297.0
1306.15972	1297.0
1306.699058	1297.599976
1307.238341	1289.199951
1307.777567	1307.0
1308.316738	1291.599976
1308.855853	1307.199951
1309.394912	1311.599976
1309.933915	1302.599976
1310.472862	1296.0
1311.011753	1290.800049
1311.550588	1298.400024
1312.089367	1289.400024
1312.62809	1294.800049
1313.166758	1299.800049
1313.70537	1293.599976
1314.243925	1281.0
1314.782425	1298.199951
1315.320869	1291.199951
1315.859257	1297.400024
1316.397589	1301.800049
1316.935866	1289.0
1317.474086	1290.199951
1318.012251	1291.400024
1318.55036	1297.199951
1319.088413	1282.800049
1319.62641	1274.0
1320.164351	1295.800049
1320.702236	1290.400024
1321.240066	1301.800049
1321.777839	1298.400024
1322.315557	1285.199951
1322.853219	1294.599976
1323.390826	1281.199951
1323.928376	1292.400024
1324.465871	1287.199951
1325.003309	1280.800049
1325.540692	1281.599976
1326.07802	1295.400024
1326.615291	1281.0
1327.152506	1291.0
1327.689666	1290.0
1328.22677	1288.800049
1328.763818	1280.0
1329.300811	1284.199951
1329.837747	1289.199951
1330.374628	1285.599976
1330.911453	1289.199951
1331.448222	1273.599976
1331.984936	1278.0
1332.521594	1282.400024
1333.058196	1294.400024
1333.594742	1286.199951
1334.131232	1281.800049
1334.667667	1284.800049
1335.204046	1289.800049
1335.740369	1279.0
1336.276637	1283.599976
1336.812848	1284.0
1337.349004	1288.599976
1337.885105	1276.199951
1338.421149	1281.400024
1338.957138	1279.400024
1339.493071	1282.199951
1340.028949	1281.199951
1340.56477	1277.800049
1341.100536	1277.400024
1341.636246	1288.0
1342.171901	1270.599976
1342.7075	1273.800049
1343.243043	1281.400024
1343.77853	1292.800049
1344.313962	1275.800049
1344.849338	1287.199951
1345.384659	1269.599976
1345.919923	1287.199951
1346.455133	1285.599976
1346.990286	1274.599976
1347.525384	1267.199951
1348.060426	1274.800049
1348.595412	1261.599976
1349.130343	1268.199951
1349.665218	1281.199951
1350.200037	1273.800049
1350.734801	1283.800049
1351.269509	1269.599976
1351.804162	1280.0
1352.338758	1269.0
1352.8733	1280.599976
1353.407785	1267.199951
1353.942215	1272.599976
1354.476589	1262.0
1355.010908	1285.0
1355.545171	1270.800049
1356.079379	1266.599976
1356.61353	1277.199951
1357.147627	1270.199951
1357.681667	1270.199951
1358.215652	1269.0
1358.749582	1262.800049
1359.283456	1267.199951
1359.817274	1267.599976
1360.351037	1259.800049
1360.884744	1276.800049
1361.418395	1260.199951
1361.951991	1271.800049
1362.485531	1268.199951
1363.019016	1272.599976
1363.552445	1260.0
1364.085819	1263.800049
1364.619137	1263.0
1365.1524	1269.400024
1365.685607	1268.599976
1366.218758	1257.599976
1366.751854	1260.400024
1367.284894	1262.800049
1367.817879	1262.0
1368.350808	1258.400024
1368.883682	1259.599976
1369.4165	1256.800049
1369.949263	1262.599976
1370.48197	1265.199951
1371.014622	1257.599976
1371.547218	1246.599976
1372.079758	1253.599976
1372.612244	1259.199951
1373.144673	1270.400024
1373.677047	1254.599976
1374.209366	1254.199951
1374.741629	1262.599976
1375.273836	1268.800049
1375.805989	1255.599976
1376.338085	1267.800049
1376.870126	1257.0
1377.402112	1268.199951
1377.934042	1268.199951
1378.465917	1248.599976
1378.997736	1256.0
1379.5295	1253.199951
1380.061208	1249.0
1380.592861	1254.599976
1381.124459	1261.0
1381.656	1264.800049
1382.187487	1252.800049
1382.718918	1257.599976
1383.250294	1251.800049
1383.781614	1248.400024
1384.312879	1265.599976
1384.844088	1254.400024
1385.375242	1253.800049
1385.90634	1258.0
1386.437383	1261.400024
1386.968371	1255.800049
1387.499303	1269.800049
1388.03018	1291.800049
1388.561001	1493.599976
1389.091767	1525.400024
1389.622478	1302.199951
1390.153133	1259.0
1390.683733	1260.400024
1391.214277	1253.0
1391.744766	1251.199951
1392.2752	1255.0
1392.805578	1252.0
1393.335901	1259.199951
1393.866168	1250.599976
1394.396381	1243.199951
1394.926537	1240.599976
1395.456639	1249.199951
1395.986685	1253.800049
1396.516675	1245.199951
1397.046611	1246.800049
1397.576491	1259.400024
1398.106315	1257.199951
1398.636084	1240.800049
1399.165798	1253.599976
1399.695457	1243.0
1400.22506	1248.800049
1400.754608	1243.0
1401.284101	1250.199951
1401.813538	1239.0
1402.34292	1250.599976
1402.872247	1245.0
1403.401518	1252.400024
1403.930734	1243.400024
1404.459895	1233.0
1404.989	1240.0
1405.51805	1246.199951
1406.047045	1247.400024
1406.575984	1238.800049
1407.104869	1253.400024
1407.633697	1247.400024
1408.162471	1237.800049
1408.691189	1255.800049
1409.219852	1267.0
1409.74846	1281.400024
1410.277013	1293.0
1410.80551	1270.199951
1411.333952	1230.400024
1411.862339	1245.199951
1412.39067	1242.599976
1412.918946	1233.800049
1413.447167	1243.0
1413.975333	1235.400024
1414.503444	1243.400024
1415.031499	1250.199951
1415.559499	1238.0
1416.087444	1235.800049
1416.615333	1227.800049
1417.143167	1248.0
1417.670947	1244.599976
1418.19867	1238.0
1418.726339	1237.0
1419.253952	1241.599976
1419.781511	1237.599976
1420.309014	1235.199951
1420.836461	1232.599976
1421.363854	1234.400024
1421.891191	1237.800049
1422.418474	1233.199951
1422.945701	1249.0
1423.472872	1233.0
1423.999989	1245.0
1424.52705	1228.0
1425.054057	1238.0
1425.581008	1235.599976
1426.107904	1245.800049
1426.634745	1254.599976
1427.16153	1240.400024
1427.688261	1231.199951
1428.214936	1234.0
1428.741556	1242.199951
1429.268121	1234.199951
1429.794631	1232.0
1430.321085	1226.599976
1430.847485	1235.599976
1431.373829	1237.0
1431.900118	1230.199951
1432.426353	1232.199951
1432.952532	1227.0
1433.478655	1241.800049
1434.004724	1237.199951
1434.530738	1228.199951
1435.056696	1230.199951
1435.5826	1227.0
1436.108448	1227.199951
1436.634241	1235.599976
1437.159979	1240.0
1437.685662	1224.599976
1438.21129	1237.599976
1438.736863	1233.400024
1439.262381	1216.0
1439.787843	1230.0
1440.313251	1224.400024
1440.838603	1224.800049
1441.3639	1217.199951
1441.889143	1230.199951
1442.41433	1224.599976
1442.939462	1237.800049
1443.464539	1221.0
1443.989561	1225.0
1444.514528	1226.0
1445.03944	1218.0
1445.564297	1232.199951
1446.089099	1210.800049
1446.613846	1226.800049
1447.138537	1226.800049
1447.663174	1220.199951
1448.187756	1210.800049
1448.712282	1223.599976
1449.236754	1232.199951
1449.761171	1228.800049
1450.285532	1215.800049
1450.809839	1221.199951
1451.33409	1230.800049
1451.858287	1216.800049
1452.382428	1213.400024
1452.906515	1215.800049
1453.430546	1209.800049
1453.954523	1218.199951
1454.478444	1220.0
1455.002311	1222.199951
1455.526123	1234.199951
1456.049879	1218.400024
1456.573581	1213.800049
1457.097227	1215.199951
1457.620819	1217.400024
1458.144356	1224.0
1458.667837	1209.199951
1459.191264	1220.199951
1459.714636	1209.199951
1460.237952	1211.400024
1460.761214	1211.400024
1461.284421	1210.800049
1461.807573	1213.0
1462.33067	1218.400024
1462.853712	1217.199951
1463.376699	1215.400024
1463.899632	1222.0
1464.422509	1204.199951
1464.945331	1205.400024
1465.468099	1217.800049
1465.990811	1215.599976
1466.513469	1213.0
1467.036071	1211.0
1467.558619	1206.199951
1468.081112	1226.0
1468.60355	1217.599976
1469.125933	1212.800049
1469.648261	1212.400024
1470.170534	1213.400024
1470.692752	1198.400024
1471.214916	1205.599976
1471.737024	1199.0
1472.259078	1214.0
1472.781077	1208.400024
1473.303021	1214.199951
1473.82491	1205.599976
1474.346744	1208.400024
1474.868523	1208.599976
1475.390248	1215.599976
1475.911917	1206.800049
1476.433532	1199.800049
1476.955092	1206.599976
1477.476597	1212.800049
1477.998047	1204.199951
1478.519442	1206.800049
1479.040783	1201.599976
1479.562068	1203.199951
1480.083299	1207.0
1480.604475	1214.0
1481.125596	1210.199951
1481.646663	1204.800049
1482.167674	1211.199951
1482.688631	1203.599976
1483.209533	1197.599976
1483.73038	1215.599976
1484.251172	1197.599976
1484.771909	1207.400024
1485.292592	1206.199951
1485.81322	1202.199951
1486.333793	1189.800049
1486.854311	1197.800049
1487.374775	1198.199951
1487.895183	1208.0
1488.415537	1200.199951
1488.935836	1197.400024
1489.456081	1191.199951
1489.97627	1201.400024
1490.496405	1202.400024
1491.016485	1203.800049
1491.536511	1190.400024
1492.056481	1202.599976
1492.576397	1190.599976
1493.096258	1195.400024
1493.616064	1199.599976
1494.135816	1201.800049
1494.655513	1204.0
1495.175155	1206.199951
1495.694742	1189.199951
1496.214274	1195.0
1496.733752	1185.800049
1497.253175	1188.0
1497.772544	1197.199951
1498.291858	1188.800049
1498.811116	1202.0
1499.330321	1194.800049
1499.84947	1194.199951
1500.368565	1186.400024
1500.887605	1202.599976
1501.406591	1191.599976
1501.925521	1189.199951
1502.444397	1189.400024
1502.963219	1193.199951
1503.481985	1194.800049
1504.000697	1184.599976
1504.519355	1182.400024
1505.037957	1191.199951
1505.556505	1182.0
1506.074999	1183.800049
1506.593437	1183.0
1507.111821	1181.199951
1507.63015	1177.199951
1508.148425	1189.800049
1508.666645	1189.400024
1509.18481	1181.199951
1509.702921	1182.0
1510.220977	1186.0
1510.738979	1181.599976
1511.256925	1197.400024
1511.774817	1181.199951
1512.292655	1188.599976
1512.810438	1181.400024
1513.328166	1185.800049
1513.84584	1185.400024
1514.363459	1189.199951
1514.881023	1183.199951
1515.398533	1195.199951
1515.915988	1175.0
1516.433389	1181.0
1516.950734	1173.0
1517.468026	1184.199951
1517.985263	1188.599976
1518.502445	1179.599976
1519.019572	1183.0
1519.536645	1175.400024
1520.053664	1198.199951
1520.570628	1171.800049
1521.087537	1173.0
1521.604392	1181.599976
1522.121192	1177.800049
1522.637937	1190.800049
1523.154628	1180.800049
1523.671265	1173.599976
1524.187847	1172.199951
1524.704374	1178.599976
1525.220847	1192.599976
1525.737265	1175.800049
1526.253629	1176.0
1526.769938	1179.400024
1527.286192	1179.599976
1527.802392	1180.0
1528.318538	1179.0
1528.834629	1173.599976
1529.350666	1184.400024
1529.866648	1177.0
1530.382575	1173.400024
1530.898448	1177.0
1531.414266	1176.0
1531.93003	1179.199951
1532.44574	1177.599976
1532.961395	1173.800049
1533.476995	1177.0
1533.992541	1194.599976
1534.508033	1173.800049
1535.02347	1175.0
1535.538852	1174.0
1536.05418	1177.0
1536.569454	1168.599976
1537.084673	1174.599976
1537.599837	1173.599976
1538.114947	1180.199951
1538.630003	1183.599976
1539.145004	1183.0
1539.659951	1177.0
1540.174843	1173.800049
1540.689681	1167.400024
1541.204465	1183.199951
1541.719194	1185.199951
1542.233868	1179.199951
1542.748488	1171.400024
1543.263054	1180.599976
1543.777565	1192.599976
1544.292022	1179.800049
1544.806424	1174.400024
1545.320772	1180.400024
1545.835066	1177.599976
1546.349305	1168.400024
1546.863489	1176.800049
1547.37762	1177.0
1547.891696	1170.800049
1548.405717	1173.0
1548.919684	1170.800049
1549.433597	1174.800049
1549.947455	1186.800049
1550.461259	1180.0
1550.975009	1177.0
1551.488704	1181.400024
1552.002345	1183.800049
1552.515931	1172.800049
1553.029463	1183.599976
1553.542941	1173.0
1554.056364	1167.800049
1554.569733	1187.0
1555.083048	1172.0
1555.596308	1175.599976
1556.109514	1163.0
1556.622665	1178.800049
1557.135762	1167.599976
1557.648805	1174.400024
1558.161794	1172.800049
1558.674728	1161.199951
1559.187608	1172.199951
1559.700433	1171.800049
1560.213205	1178.0
1560.725921	1178.400024
1561.238584	1157.400024
1561.751192	1171.599976
1562.263746	1181.800049
1562.776246	1165.400024
1563.288691	1163.0
1563.801082	1164.199951
1564.313419	1174.199951
1564.825701	1163.400024
1565.337929	1163.0
1565.850103	1171.0
1566.362223	1170.400024
1566.874288	1172.199951
1567.386299	1167.0
1567.898256	1172.800049
1568.410158	1174.199951
1568.922007	1171.599976
1569.4338	1179.400024
1569.94554	1169.199951
1570.457226	1159.400024
1570.968857	1163.0
1571.480434	1170.599976
1571.991956	1166.800049
1572.503425	1173.400024
1573.014839	1171.800049
1573.526199	1176.400024
1574.037505	1157.199951
1574.548756	1173.400024
1575.059953	1168.199951
1575.571096	1164.400024
1576.082185	1166.400024
1576.59322	1166.800049
1577.1042	1163.400024
1577.615126	1167.400024
1578.125998	1185.0
1578.636816	1163.400024
1579.14758	1172.400024
1579.658289	1170.0
1580.168944	1161.800049
1580.679545	1166.199951
1581.190092	1167.800049
1581.700585	1173.0
1582.211023	1154.400024
1582.721407	1165.400024
1583.231737	1162.599976
1583.742013	1173.599976
1584.252235	1163.199951
1584.762403	1176.199951
1585.272516	1171.800049
1585.782575	1160.199951
1586.292581	1165.599976
1586.802532	1152.400024
1587.312428	1160.800049
1587.822271	1166.199951
1588.33206	1170.199951
1588.841794	1156.800049
1589.351474	1160.800049
1589.8611	1155.800049
1590.370672	1160.800049
1590.88019	1154.400024
1591.389654	1161.400024
1591.899064	1158.800049
1592.408419	1161.400024
