 1.042452273E+03	 2.660800049E+03
 1.043018714E+03	 2.656399902E+03
 1.043585098E+03	 2.650000000E+03
 1.044151424E+03	 2.663199951E+03
 1.044717692E+03	 2.638800049E+03
 1.045283903E+03	 2.661600098E+03
 1.045850056E+03	 2.658199951E+03
 1.046416151E+03	 2.633399902E+03
 1.046982188E+03	 2.641000000E+03
 1.047548167E+03	 2.654199951E+03
 1.048114089E+03	 2.656199951E+03
 1.048679953E+03	 2.660399902E+03
 1.049245760E+03	 2.660800049E+03
 1.049811509E+03	 2.661399902E+03
 1.050377200E+03	 2.646800049E+03
 1.050942833E+03	 2.654399902E+03
 1.051508408E+03	 2.645199951E+03
 1.052073926E+03	 2.642399902E+03
 1.052639387E+03	 2.633199951E+03
 1.053204789E+03	 2.649800049E+03
 1.053770134E+03	 2.648199951E+03
 1.054335421E+03	 2.609199951E+03
 1.054900651E+03	 2.649600098E+03
 1.055465823E+03	 2.637399902E+03
 1.056030937E+03	 2.636199951E+03
 1.056595993E+03	 2.634199951E+03
 1.057160992E+03	 2.618199951E+03
 1.057725934E+03	 2.616800049E+03
 1.058290817E+03	 2.650399902E+03
 1.058855643E+03	 2.616399902E+03
 1.059420411E+03	 2.638000000E+03
 1.059985122E+03	 2.590199951E+03
 1.060549775E+03	 2.635600098E+03
 1.061114371E+03	 2.606600098E+03
 1.061678908E+03	 2.642000000E+03
 1.062243389E+03	 2.626000000E+03
 1.062807811E+03	 2.637600098E+03
 1.063372176E+03	 2.608399902E+03
 1.063936483E+03	 2.622199951E+03
 1.064500733E+03	 2.612600098E+03
 1.065064925E+03	 2.628399902E+03
 1.065629060E+03	 2.614199951E+03
 1.066193137E+03	 2.612199951E+03
 1.066757156E+03	 2.602600098E+03
 1.067321118E+03	 2.608399902E+03
 1.067885022E+03	 2.593600098E+03
 1.068448869E+03	 2.625600098E+03
 1.069012658E+03	 2.614600098E+03
 1.069576390E+03	 2.626399902E+03
 1.070140063E+03	 2.610199951E+03
 1.070703680E+03	 2.621000000E+03
 1.071267239E+03	 2.579800049E+03
 1.071830740E+03	 2.582800049E+03
 1.072394184E+03	 2.573199951E+03
 1.072957570E+03	 2.581399902E+03
 1.073520899E+03	 2.577199951E+03
 1.074084170E+03	 2.597000000E+03
 1.074647383E+03	 2.563800049E+03
 1.075210540E+03	 2.587199951E+03
 1.075773638E+03	 2.558800049E+03
 1.076336679E+03	 2.597000000E+03
 1.076899663E+03	 2.559199951E+03
 1.077462589E+03	 2.564199951E+03
 1.078025457E+03	 2.554199951E+03
 1.078588268E+03	 2.586600098E+03
 1.079151022E+03	 2.564800049E+03
 1.079713718E+03	 2.579600098E+03
 1.080276356E+03	 2.553600098E+03
 1.080838937E+03	 2.541000000E+03
 1.081401461E+03	 2.548000000E+03
 1.081963927E+03	 2.571000000E+03
 1.082526336E+03	 2.567199951E+03
 1.083088687E+03	 2.571800049E+03
 1.083650981E+03	 2.542000000E+03
 1.084213217E+03	 2.543600098E+03
 1.084775396E+03	 2.540600098E+03
 1.085337517E+03	 2.545600098E+03
 1.085899581E+03	 2.544800049E+03
 1.086461587E+03	 2.521199951E+03
 1.087023536E+03	 2.555399902E+03
 1.087585428E+03	 2.513199951E+03
 1.088147262E+03	 2.526800049E+03
 1.088709039E+03	 2.533600098E+03
 1.089270758E+03	 2.521399902E+03
 1.089832420E+03	 2.536000000E+03
 1.090394024E+03	 2.522600098E+03
 1.090955571E+03	 2.512800049E+03
 1.091517061E+03	 2.504600098E+03
 1.092078493E+03	 2.504199951E+03
 1.092639868E+03	 2.488000000E+03
 1.093201185E+03	 2.519199951E+03
 1.093762445E+03	 2.487600098E+03
 1.094323648E+03	 2.511000000E+03
 1.094884793E+03	 2.501399902E+03
 1.095445881E+03	 2.491000000E+03
 1.096006911E+03	 2.478600098E+03
 1.096567884E+03	 2.501199951E+03
 1.097128800E+03	 2.497000000E+03
 1.097689659E+03	 2.509600098E+03
 1.098250460E+03	 2.467399902E+03
 1.098811203E+03	 2.510399902E+03
 1.099371890E+03	 2.463600098E+03
 1.099932518E+03	 2.494199951E+03
 1.100493090E+03	 2.470199951E+03
 1.101053604E+03	 2.496600098E+03
 1.101614061E+03	 2.464800049E+03
 1.102174461E+03	 2.477600098E+03
 1.102734803E+03	 2.480399902E+03
 1.103295088E+03	 2.488800049E+03
 1.103855316E+03	 2.462399902E+03
 1.104415486E+03	 2.472199951E+03
 1.104975599E+03	 2.440399902E+03
 1.105535655E+03	 2.479399902E+03
 1.106095653E+03	 2.433800049E+03
 1.106655594E+03	 2.484600098E+03
 1.107215478E+03	 2.435000000E+03
 1.107775305E+03	 2.450199951E+03
 1.108335074E+03	 2.433800049E+03
 1.108894786E+03	 2.444399902E+03
 1.109454440E+03	 2.478000000E+03
 1.110014038E+03	 2.471199951E+03
 1.110573578E+03	 2.432000000E+03
 1.111133061E+03	 2.453399902E+03
 1.111692486E+03	 2.438800049E+03
 1.112251854E+03	 2.441000000E+03
 1.112811165E+03	 2.435000000E+03
 1.113370419E+03	 2.436600098E+03
 1.113929616E+03	 2.428600098E+03
 1.114488755E+03	 2.449800049E+03
 1.115047837E+03	 2.456000000E+03
 1.115606862E+03	 2.453399902E+03
 1.116165830E+03	 2.445399902E+03
 1.116724740E+03	 2.474800049E+03
 1.117283593E+03	 2.423000000E+03
 1.117842389E+03	 2.434199951E+03
 1.118401128E+03	 2.404600098E+03
 1.118959809E+03	 2.441399902E+03
 1.119518433E+03	 2.417800049E+03
 1.120077000E+03	 2.413600098E+03
 1.120635510E+03	 2.403399902E+03
 1.121193963E+03	 2.420800049E+03
 1.121752358E+03	 2.398800049E+03
 1.122310697E+03	 2.442800049E+03
 1.122868978E+03	 2.404800049E+03
 1.123427202E+03	 2.433199951E+03
 1.123985368E+03	 2.384800049E+03
 1.124543478E+03	 2.413199951E+03
 1.125101530E+03	 2.409399902E+03
 1.125659526E+03	 2.404399902E+03
 1.126217464E+03	 2.403800049E+03
 1.126775345E+03	 2.417600098E+03
 1.127333168E+03	 2.422000000E+03
 1.127890935E+03	 2.406199951E+03
 1.128448644E+03	 2.397199951E+03
 1.129006297E+03	 2.413600098E+03
 1.129563892E+03	 2.405000000E+03
 1.130121430E+03	 2.395600098E+03
 1.130678911E+03	 2.384199951E+03
 1.131236335E+03	 2.404800049E+03
 1.131793701E+03	 2.387399902E+03
 1.132351011E+03	 2.411000000E+03
 1.132908263E+03	 2.382199951E+03
 1.133465458E+03	 2.414199951E+03
 1.134022597E+03	 2.399800049E+03
 1.134579678E+03	 2.424000000E+03
 1.135136702E+03	 2.418199951E+03
 1.135693669E+03	 2.386600098E+03
 1.136250578E+03	 2.376800049E+03
 1.136807431E+03	 2.399399902E+03
 1.137364227E+03	 2.376000000E+03
 1.137920965E+03	 2.397199951E+03
 1.138477647E+03	 2.391000000E+03
 1.139034271E+03	 2.406399902E+03
 1.139590839E+03	 2.367199951E+03
 1.140147349E+03	 2.388000000E+03
 1.140703802E+03	 2.360800049E+03
 1.141260198E+03	 2.404800049E+03
 1.141816537E+03	 2.382000000E+03
 1.142372820E+03	 2.372600098E+03
 1.142929045E+03	 2.386199951E+03
 1.143485213E+03	 2.371000000E+03
 1.144041323E+03	 2.375600098E+03
 1.144597377E+03	 2.372000000E+03
 1.145153374E+03	 2.372000000E+03
 1.145709314E+03	 2.391000000E+03
 1.146265197E+03	 2.371800049E+03
 1.146821023E+03	 2.378399902E+03
 1.147376792E+03	 2.370399902E+03
 1.147932503E+03	 2.392199951E+03
 1.148488158E+03	 2.372800049E+03
 1.149043756E+03	 2.384600098E+03
 1.149599297E+03	 2.397000000E+03
 1.150154781E+03	 2.389800049E+03
 1.150710207E+03	 2.383199951E+03
 1.151265577E+03	 2.375800049E+03
 1.151820890E+03	 2.382000000E+03
 1.152376146E+03	 2.380199951E+03
 1.152931345E+03	 2.375800049E+03
 1.153486487E+03	 2.379000000E+03
 1.154041572E+03	 2.378600098E+03
 1.154596600E+03	 2.398000000E+03
 1.155151571E+03	 2.390600098E+03
 1.155706485E+03	 2.383199951E+03
 1.156261342E+03	 2.385000000E+03
 1.156816142E+03	 2.377199951E+03
 1.157370885E+03	 2.382199951E+03
 1.157925572E+03	 2.382399902E+03
 1.158480201E+03	 2.360199951E+03
 1.159034774E+03	 2.364199951E+03
 1.159589289E+03	 2.399000000E+03
 1.160143748E+03	 2.349800049E+03
 1.160698149E+03	 2.387399902E+03
 1.161252494E+03	 2.337199951E+03
 1.161806782E+03	 2.378800049E+03
 1.162361013E+03	 2.363000000E+03
 1.162915187E+03	 2.371000000E+03
 1.163469304E+03	 2.363800049E+03
 1.164023364E+03	 2.366600098E+03
 1.164577368E+03	 2.380800049E+03
 1.165131314E+03	 2.358399902E+03
 1.165685204E+03	 2.364000000E+03
 1.166239036E+03	 2.368199951E+03
 1.166792812E+03	 2.355199951E+03
 1.167346531E+03	 2.375399902E+03
 1.167900193E+03	 2.370199951E+03
 1.168453798E+03	 2.353600098E+03
 1.169007347E+03	 2.326600098E+03
 1.169560838E+03	 2.339399902E+03
 1.170114273E+03	 2.366600098E+03
 1.170667650E+03	 2.364000000E+03
 1.171220971E+03	 2.346199951E+03
 1.171774235E+03	 2.338399902E+03
 1.172327443E+03	 2.353199951E+03
 1.172880593E+03	 2.337000000E+03
 1.173433687E+03	 2.329800049E+03
 1.173986723E+03	 2.344600098E+03
 1.174539703E+03	 2.344199951E+03
 1.175092626E+03	 2.351000000E+03
 1.175645493E+03	 2.358800049E+03
 1.176198302E+03	 2.325199951E+03
 1.176751055E+03	 2.325399902E+03
 1.177303751E+03	 2.345800049E+03
 1.177856390E+03	 2.344800049E+03
 1.178408972E+03	 2.346000000E+03
 1.178961498E+03	 2.347199951E+03
 1.179513966E+03	 2.325199951E+03
 1.180066378E+03	 2.328600098E+03
 1.180618733E+03	 2.312399902E+03
 1.181171032E+03	 2.340199951E+03
 1.181723273E+03	 2.319000000E+03
 1.182275458E+03	 2.334800049E+03
 1.182827586E+03	 2.321000000E+03
 1.183379657E+03	 2.344199951E+03
 1.183931672E+03	 2.316000000E+03
 1.184483630E+03	 2.308800049E+03
 1.185035531E+03	 2.321600098E+03
 1.185587375E+03	 2.325000000E+03
 1.186139162E+03	 2.324000000E+03
 1.186690893E+03	 2.318000000E+03
 1.187242567E+03	 2.326600098E+03
 1.187794184E+03	 2.294399902E+03
 1.188345745E+03	 2.311199951E+03
 1.188897249E+03	 2.317600098E+03
 1.189448696E+03	 2.310800049E+03
 1.190000086E+03	 2.313800049E+03
 1.190551420E+03	 2.296600098E+03
 1.191102697E+03	 2.314399902E+03
 1.191653918E+03	 2.300000000E+03
 1.192205081E+03	 2.311000000E+03
 1.192756188E+03	 2.321600098E+03
 1.193307238E+03	 2.328199951E+03
 1.193858232E+03	 2.293399902E+03
 1.194409169E+03	 2.293199951E+03
 1.194960049E+03	 2.307199951E+03
 1.195510872E+03	 2.295600098E+03
 1.196061639E+03	 2.279600098E+03
 1.196612349E+03	 2.302199951E+03
 1.197163003E+03	 2.285000000E+03
 1.197713599E+03	 2.307000000E+03
 1.198264139E+03	 2.303399902E+03
 1.198814623E+03	 2.291800049E+03
 1.199365050E+03	 2.309399902E+03
 1.199915420E+03	 2.287399902E+03
 1.200465734E+03	 2.305000000E+03
 1.201015990E+03	 2.270199951E+03
 1.201566191E+03	 2.291600098E+03
 1.202116334E+03	 2.287800049E+03
 1.202666421E+03	 2.283800049E+03
 1.203216452E+03	 2.277000000E+03
 1.203766425E+03	 2.287399902E+03
 1.204316343E+03	 2.286600098E+03
 1.204866203E+03	 2.284000000E+03
 1.205416007E+03	 2.265800049E+03
 1.205965754E+03	 2.276000000E+03
 1.206515445E+03	 2.269800049E+03
 1.207065079E+03	 2.275600098E+03
 1.207614657E+03	 2.277199951E+03
 1.208164177E+03	 2.273600098E+03
 1.208713642E+03	 2.265800049E+03
 1.209263050E+03	 2.247000000E+03
 1.209812401E+03	 2.257000000E+03
 1.210361695E+03	 2.268000000E+03
 1.210910933E+03	 2.255000000E+03
 1.211460115E+03	 2.269399902E+03
 1.212009240E+03	 2.256399902E+03
 1.212558308E+03	 2.255600098E+03
 1.213107320E+03	 2.257000000E+03
 1.213656275E+03	 2.265600098E+03
 1.214205174E+03	 2.275199951E+03
 1.214754016E+03	 2.262399902E+03
 1.215302801E+03	 2.260199951E+03
 1.215851530E+03	 2.239199951E+03
 1.216400203E+03	 2.238399902E+03
 1.216948819E+03	 2.241600098E+03
 1.217497378E+03	 2.255800049E+03
 1.218045881E+03	 2.230199951E+03
 1.218594327E+03	 2.247399902E+03
 1.219142717E+03	 2.258600098E+03
 1.219691051E+03	 2.261600098E+03
 1.220239327E+03	 2.243000000E+03
 1.220787548E+03	 2.249399902E+03
 1.221335712E+03	 2.229399902E+03
 1.221883819E+03	 2.249000000E+03
 1.222431870E+03	 2.244399902E+03
 1.222979864E+03	 2.234399902E+03
 1.223527802E+03	 2.242000000E+03
 1.224075683E+03	 2.240399902E+03
 1.224623508E+03	 2.219800049E+03
 1.225171277E+03	 2.231000000E+03
 1.225718989E+03	 2.238199951E+03
 1.226266644E+03	 2.249000000E+03
 1.226814243E+03	 2.232199951E+03
 1.227361786E+03	 2.237199951E+03
 1.227909272E+03	 2.232800049E+03
 1.228456702E+03	 2.243600098E+03
 1.229004075E+03	 2.244800049E+03
 1.229551392E+03	 2.212199951E+03
 1.230098652E+03	 2.237399902E+03
 1.230645856E+03	 2.218199951E+03
 1.231193003E+03	 2.221399902E+03
 1.231740094E+03	 2.207000000E+03
 1.232287129E+03	 2.245199951E+03
 1.232834107E+03	 2.217399902E+03
 1.233381029E+03	 2.209199951E+03
 1.233927894E+03	 2.190199951E+03
 1.234474703E+03	 2.238199951E+03
 1.235021455E+03	 2.203000000E+03
 1.235568151E+03	 2.215000000E+03
 1.236114791E+03	 2.212199951E+03
 1.236661374E+03	 2.214600098E+03
 1.237207901E+03	 2.217000000E+03
 1.237754372E+03	 2.226600098E+03
 1.238300786E+03	 2.199800049E+03
 1.238847144E+03	 2.225399902E+03
 1.239393445E+03	 2.213199951E+03
 1.239939690E+03	 2.206199951E+03
 1.240485879E+03	 2.200600098E+03
 1.241032011E+03	 2.207800049E+03
 1.241578087E+03	 2.186800049E+03
 1.242124106E+03	 2.214199951E+03
 1.242670070E+03	 2.191399902E+03
 1.243215976E+03	 2.203199951E+03
 1.243761827E+03	 2.201000000E+03
 1.244307621E+03	 2.214199951E+03
 1.244853359E+03	 2.223399902E+03
 1.245399040E+03	 2.183399902E+03
 1.245944665E+03	 2.211600098E+03
 1.246490234E+03	 2.189600098E+03
 1.247035746E+03	 2.216000000E+03
 1.247581203E+03	 2.211399902E+03
 1.248126602E+03	 2.186199951E+03
 1.248671946E+03	 2.163800049E+03
 1.249217233E+03	 2.191199951E+03
 1.249762464E+03	 2.194000000E+03
 1.250307638E+03	 2.176800049E+03
 1.250852757E+03	 2.181800049E+03
 1.251397819E+03	 2.204600098E+03
 1.251942824E+03	 2.177199951E+03
 1.252487774E+03	 2.195399902E+03
 1.253032667E+03	 2.192600098E+03
 1.253577503E+03	 2.179000000E+03
 1.254122284E+03	 2.181399902E+03
 1.254667008E+03	 2.185199951E+03
 1.255211676E+03	 2.178199951E+03
 1.255756288E+03	 2.171399902E+03
 1.256300843E+03	 2.182000000E+03
 1.256845342E+03	 2.186000000E+03
 1.257389785E+03	 2.157199951E+03
 1.257934172E+03	 2.181000000E+03
 1.258478502E+03	 2.187800049E+03
 1.259022776E+03	 2.170199951E+03
 1.259566994E+03	 2.189600098E+03
 1.260111156E+03	 2.160600098E+03
 1.260655261E+03	 2.147000000E+03
 1.261199311E+03	 2.169800049E+03
 1.261743304E+03	 2.170399902E+03
 1.262287240E+03	 2.172000000E+03
 1.262831121E+03	 2.169800049E+03
 1.263374945E+03	 2.174199951E+03
 1.263918713E+03	 2.165000000E+03
 1.264462425E+03	 2.165000000E+03
 1.265006081E+03	 2.169600098E+03
 1.265549680E+03	 2.149399902E+03
 1.266093223E+03	 2.165199951E+03
 1.266636711E+03	 2.177800049E+03
 1.267180141E+03	 2.149000000E+03
 1.267723516E+03	 2.145000000E+03
 1.268266835E+03	 2.161000000E+03
 1.268810097E+03	 2.160399902E+03
 1.269353303E+03	 2.183399902E+03
 1.269896453E+03	 2.153199951E+03
 1.270439547E+03	 2.138399902E+03
 1.270982584E+03	 2.143399902E+03
 1.271525566E+03	 2.151000000E+03
 1.272068491E+03	 2.162399902E+03
 1.272611360E+03	 2.155000000E+03
 1.273154173E+03	 2.150800049E+03
 1.273696930E+03	 2.166800049E+03
 1.274239631E+03	 2.128600098E+03
 1.274782275E+03	 2.148199951E+03
 1.275324864E+03	 2.148199951E+03
 1.275867396E+03	 2.150399902E+03
 1.276409872E+03	 2.124199951E+03
 1.276952292E+03	 2.145199951E+03
 1.277494656E+03	 2.158600098E+03
 1.278036964E+03	 2.149600098E+03
 1.278579215E+03	 2.141600098E+03
 1.279121411E+03	 2.147000000E+03
 1.279663550E+03	 2.162199951E+03
 1.280205634E+03	 2.117399902E+03
 1.280747661E+03	 2.161000000E+03
 1.281289632E+03	 2.137000000E+03
 1.281831547E+03	 2.130399902E+03
 1.282373406E+03	 2.126800049E+03
 1.282915209E+03	 2.128600098E+03
 1.283456955E+03	 2.127399902E+03
 1.283998646E+03	 2.126600098E+03
 1.284540281E+03	 2.172000000E+03
 1.285081859E+03	 2.177199951E+03
 1.285623381E+03	 2.181399902E+03
 1.286164848E+03	 2.143000000E+03
 1.286706258E+03	 2.121399902E+03
 1.287247612E+03	 2.135600098E+03
 1.287788911E+03	 2.101399902E+03
 1.288330153E+03	 2.121399902E+03
 1.288871339E+03	 2.136000000E+03
 1.289412469E+03	 2.121600098E+03
 1.289953543E+03	 2.122399902E+03
 1.290494561E+03	 2.122399902E+03
 1.291035523E+03	 2.111199951E+03
 1.291576428E+03	 2.106800049E+03
 1.292117278E+03	 2.106399902E+03
 1.292658072E+03	 2.126800049E+03
 1.293198810E+03	 2.109000000E+03
 1.293739492E+03	 2.114399902E+03
 1.294280118E+03	 2.102600098E+03
 1.294820687E+03	 2.118199951E+03
 1.295361201E+03	 2.118600098E+03
 1.295901659E+03	 2.099600098E+03
 1.296442061E+03	 2.115000000E+03
 1.296982406E+03	 2.102000000E+03
 1.297522696E+03	 2.099000000E+03
 1.298062930E+03	 2.108600098E+03
 1.298603108E+03	 2.091600098E+03
 1.299143229E+03	 2.089600098E+03
 1.299683295E+03	 2.093000000E+03
 1.300223305E+03	 2.103399902E+03
 1.300763259E+03	 2.100399902E+03
 1.301303157E+03	 2.110600098E+03
 1.301842999E+03	 2.087399902E+03
 1.302382785E+03	 2.099800049E+03
 1.302922515E+03	 2.080000000E+03
 1.303462189E+03	 2.099000000E+03
 1.304001807E+03	 2.088600098E+03
 1.304541369E+03	 2.090199951E+03
 1.305080875E+03	 2.092600098E+03
 1.305620326E+03	 2.082399902E+03
 1.306159720E+03	 2.078399902E+03
 1.306699058E+03	 2.090000000E+03
 1.307238341E+03	 2.090800049E+03
 1.307777567E+03	 2.101199951E+03
 1.308316738E+03	 2.073000000E+03
 1.308855853E+03	 2.077800049E+03
 1.309394912E+03	 2.080000000E+03
 1.309933915E+03	 2.102600098E+03
 1.310472862E+03	 2.090000000E+03
 1.311011753E+03	 2.081199951E+03
 1.311550588E+03	 2.080800049E+03
 1.312089367E+03	 2.063800049E+03
 1.312628090E+03	 2.065800049E+03
 1.313166758E+03	 2.091600098E+03
 1.313705370E+03	 2.074399902E+03
 1.314243925E+03	 2.052199951E+03
 1.314782425E+03	 2.084399902E+03
 1.315320869E+03	 2.076600098E+03
 1.315859257E+03	 2.081600098E+03
 1.316397589E+03	 2.078199951E+03
 1.316935866E+03	 2.081399902E+03
 1.317474086E+03	 2.078800049E+03
 1.318012251E+03	 2.072000000E+03
 1.318550360E+03	 2.055800049E+03
 1.319088413E+03	 2.064600098E+03
 1.319626410E+03	 2.058199951E+03
 1.320164351E+03	 2.070600098E+03
 1.320702236E+03	 2.056000000E+03
 1.321240066E+03	 2.045000000E+03
 1.321777839E+03	 2.034000000E+03
 1.322315557E+03	 2.059399902E+03
 1.322853219E+03	 2.057600098E+03
 1.323390826E+03	 2.068000000E+03
 1.323928376E+03	 2.071199951E+03
 1.324465871E+03	 2.064000000E+03
 1.325003309E+03	 2.063800049E+03
 1.325540692E+03	 2.043199951E+03
 1.326078020E+03	 2.048800049E+03
 1.326615291E+03	 2.045400024E+03
 1.327152506E+03	 2.072800049E+03
 1.327689666E+03	 2.040400024E+03
 1.328226770E+03	 2.072399902E+03
 1.328763818E+03	 2.067399902E+03
 1.329300811E+03	 2.032599976E+03
 1.329837747E+03	 2.057800049E+03
 1.330374628E+03	 2.041800049E+03
 1.330911453E+03	 2.049199951E+03
 1.331448222E+03	 2.035800049E+03
 1.331984936E+03	 2.034800049E+03
 1.332521594E+03	 2.045599976E+03
 1.333058196E+03	 2.031599976E+03
 1.333594742E+03	 2.039199951E+03
 1.334131232E+03	 2.034599976E+03
 1.334667667E+03	 2.054000000E+03
 1.335204046E+03	 2.013199951E+03
 1.335740369E+03	 2.021599976E+03
 1.336276637E+03	 2.032400024E+03
 1.336812848E+03	 2.029800049E+03
 1.337349004E+03	 2.033400024E+03
 1.337885105E+03	 2.030000000E+03
 1.338421149E+03	 2.030800049E+03
 1.338957138E+03	 2.043800049E+03
 1.339493071E+03	 2.028599976E+03
 1.340028949E+03	 2.027199951E+03
 1.340564770E+03	 2.025599976E+03
 1.341100536E+03	 2.014599976E+03
 1.341636246E+03	 2.034400024E+03
 1.342171901E+03	 2.011800049E+03
 1.342707500E+03	 2.012199951E+03
 1.343243043E+03	 2.020199951E+03
 1.343778530E+03	 2.029599976E+03
 1.344313962E+03	 2.035599976E+03
 1.344849338E+03	 2.011199951E+03
 1.345384659E+03	 2.015000000E+03
 1.345919923E+03	 2.024199951E+03
 1.346455133E+03	 2.017400024E+03
 1.346990286E+03	 2.012800049E+03
 1.347525384E+03	 2.004800049E+03
 1.348060426E+03	 2.042000000E+03
 1.348595412E+03	 1.978599976E+03
 1.349130343E+03	 2.023000000E+03
 1.349665218E+03	 2.027199951E+03
 1.350200037E+03	 2.009000000E+03
 1.350734801E+03	 2.028800049E+03
 1.351269509E+03	 2.009000000E+03
 1.351804162E+03	 2.004199951E+03
 1.352338758E+03	 1.999199951E+03
 1.352873300E+03	 2.006199951E+03
 1.353407785E+03	 1.982800049E+03
 1.353942215E+03	 2.007000000E+03
 1.354476589E+03	 1.995800049E+03
 1.355010908E+03	 1.996000000E+03
 1.355545171E+03	 2.016000000E+03
 1.356079379E+03	 1.994599976E+03
 1.356613530E+03	 2.004800049E+03
 1.357147627E+03	 1.987199951E+03
 1.357681667E+03	 1.986400024E+03
 1.358215652E+03	 1.992599976E+03
 1.358749582E+03	 2.000400024E+03
 1.359283456E+03	 1.984400024E+03
 1.359817274E+03	 2.004599976E+03
 1.360351037E+03	 1.998000000E+03
 1.360884744E+03	 2.011599976E+03
 1.361418395E+03	 1.974000000E+03
 1.361951991E+03	 1.982800049E+03
 1.362485531E+03	 1.990000000E+03
 1.363019016E+03	 1.991599976E+03
 1.363552445E+03	 1.976800049E+03
 1.364085819E+03	 1.997800049E+03
 1.364619137E+03	 1.967400024E+03
 1.365152400E+03	 1.992199951E+03
 1.365685607E+03	 1.993199951E+03
 1.366218758E+03	 2.013800049E+03
 1.366751854E+03	 1.963199951E+03
 1.367284894E+03	 1.976000000E+03
 1.367817879E+03	 1.977199951E+03
 1.368350808E+03	 1.993599976E+03
 1.368883682E+03	 1.988400024E+03
 1.369416500E+03	 1.976400024E+03
 1.369949263E+03	 1.974199951E+03
 1.370481970E+03	 1.971800049E+03
 1.371014622E+03	 1.977599976E+03
 1.371547218E+03	 1.975000000E+03
 1.372079758E+03	 1.981800049E+03
 1.372612244E+03	 1.984199951E+03
 1.373144673E+03	 1.968400024E+03
 1.373677047E+03	 1.967599976E+03
 1.374209366E+03	 1.963800049E+03
 1.374741629E+03	 1.960800049E+03
 1.375273836E+03	 1.988000000E+03
 1.375805989E+03	 1.957400024E+03
 1.376338085E+03	 1.991199951E+03
 1.376870126E+03	 1.978400024E+03
 1.377402112E+03	 1.976599976E+03
 1.377934042E+03	 1.962000000E+03
 1.378465917E+03	 1.967599976E+03
 1.378997736E+03	 1.960000000E+03
 1.379529500E+03	 1.988599976E+03
 1.380061208E+03	 1.979400024E+03
 1.380592861E+03	 1.962599976E+03
 1.381124459E+03	 1.978199951E+03
 1.381656000E+03	 1.958599976E+03
 1.382187487E+03	 1.972800049E+03
 1.382718918E+03	 1.954000000E+03
 1.383250294E+03	 1.970000000E+03
 1.383781614E+03	 1.955400024E+03
 1.384312879E+03	 1.965400024E+03
 1.384844088E+03	 1.952599976E+03
 1.385375242E+03	 1.929800049E+03
 1.385906340E+03	 1.967000000E+03
 1.386437383E+03	 1.954599976E+03
 1.386968371E+03	 1.964000000E+03
 1.387499303E+03	 1.949400024E+03
 1.388030180E+03	 1.987800049E+03
 1.388561001E+03	 2.040199951E+03
 1.389091767E+03	 2.034800049E+03
 1.389622478E+03	 1.953199951E+03
 1.390153133E+03	 1.975800049E+03
 1.390683733E+03	 1.933199951E+03
 1.391214277E+03	 1.942599976E+03
 1.391744766E+03	 1.932000000E+03
 1.392275200E+03	 1.967400024E+03
 1.392805578E+03	 1.932000000E+03
 1.393335901E+03	 1.951000000E+03
 1.393866168E+03	 1.957400024E+03
 1.394396381E+03	 1.937400024E+03
 1.394926537E+03	 1.949800049E+03
 1.395456639E+03	 1.960599976E+03
 1.395986685E+03	 1.927400024E+03
 1.396516675E+03	 1.918800049E+03
 1.397046611E+03	 1.937599976E+03
 1.397576491E+03	 1.949199951E+03
 1.398106315E+03	 1.950800049E+03
 1.398636084E+03	 1.954599976E+03
 1.399165798E+03	 1.979599976E+03
 1.399695457E+03	 1.954199951E+03
 1.400225060E+03	 1.947800049E+03
 1.400754608E+03	 1.951400024E+03
 1.401284101E+03	 1.935000000E+03
 1.401813538E+03	 1.943400024E+03
 1.402342920E+03	 1.939400024E+03
 1.402872247E+03	 1.951599976E+03
 1.403401518E+03	 1.932000000E+03
 1.403930734E+03	 1.924599976E+03
 1.404459895E+03	 1.929199951E+03
 1.404989000E+03	 1.940400024E+03
 1.405518050E+03	 1.932599976E+03
 1.406047045E+03	 1.913599976E+03
 1.406575984E+03	 1.918199951E+03
 1.407104869E+03	 1.940400024E+03
 1.407633697E+03	 1.929199951E+03
 1.408162471E+03	 1.934000000E+03
 1.408691189E+03	 1.930599976E+03
 1.409219852E+03	 1.940800049E+03
 1.409748460E+03	 1.945599976E+03
 1.410277013E+03	 1.935400024E+03
 1.410805510E+03	 1.922599976E+03
 1.411333952E+03	 1.924400024E+03
 1.411862339E+03	 1.921599976E+03
 1.412390670E+03	 1.926599976E+03
 1.412918946E+03	 1.935000000E+03
 1.413447167E+03	 1.914800049E+03
 1.413975333E+03	 1.916199951E+03
 1.414503444E+03	 1.924599976E+03
 1.415031499E+03	 1.926800049E+03
 1.415559499E+03	 1.927800049E+03
 1.416087444E+03	 1.942800049E+03
 1.416615333E+03	 1.923599976E+03
 1.417143167E+03	 1.932599976E+03
 1.417670947E+03	 1.894800049E+03
 1.418198670E+03	 1.911400024E+03
 1.418726339E+03	 1.922400024E+03
 1.419253952E+03	 1.914199951E+03
 1.419781511E+03	 1.908400024E+03
 1.420309014E+03	 1.926599976E+03
 1.420836461E+03	 1.915199951E+03
 1.421363854E+03	 1.920599976E+03
 1.421891191E+03	 1.915800049E+03
 1.422418474E+03	 1.914400024E+03
 1.422945701E+03	 1.923599976E+03
 1.423472872E+03	 1.917000000E+03
 1.423999989E+03	 1.912000000E+03
 1.424527050E+03	 1.903199951E+03
 1.425054057E+03	 1.922599976E+03
 1.425581008E+03	 1.897199951E+03
 1.426107904E+03	 1.919599976E+03
 1.426634745E+03	 1.893800049E+03
 1.427161530E+03	 1.913400024E+03
 1.427688261E+03	 1.900000000E+03
 1.428214936E+03	 1.915599976E+03
 1.428741556E+03	 1.898400024E+03
 1.429268121E+03	 1.909000000E+03
 1.429794631E+03	 1.903000000E+03
 1.430321085E+03	 1.889199951E+03
 1.430847485E+03	 1.913000000E+03
 1.431373829E+03	 1.897599976E+03
 1.431900118E+03	 1.904199951E+03
 1.432426353E+03	 1.896400024E+03
 1.432952532E+03	 1.906000000E+03
 1.433478655E+03	 1.890800049E+03
 1.434004724E+03	 1.897199951E+03
 1.434530738E+03	 1.896599976E+03
 1.435056696E+03	 1.886000000E+03
 1.435582600E+03	 1.908000000E+03
 1.436108448E+03	 1.898000000E+03
 1.436634241E+03	 1.883000000E+03
 1.437159979E+03	 1.919199951E+03
 1.437685662E+03	 1.887400024E+03
 1.438211290E+03	 1.896599976E+03
 1.438736863E+03	 1.890199951E+03
 1.439262381E+03	 1.875400024E+03
 1.439787843E+03	 1.880800049E+03
 1.440313251E+03	 1.881199951E+03
 1.440838603E+03	 1.878599976E+03
 1.441363900E+03	 1.878400024E+03
 1.441889143E+03	 1.892199951E+03
 1.442414330E+03	 1.891400024E+03
 1.442939462E+03	 1.888599976E+03
 1.443464539E+03	 1.888199951E+03
 1.443989561E+03	 1.871000000E+03
 1.444514528E+03	 1.880000000E+03
 1.445039440E+03	 1.889400024E+03
 1.445564297E+03	 1.897000000E+03
 1.446089099E+03	 1.891000000E+03
 1.446613846E+03	 1.902400024E+03
 1.447138537E+03	 1.890000000E+03
 1.447663174E+03	 1.912800049E+03
 1.448187756E+03	 1.886199951E+03
 1.448712282E+03	 1.882800049E+03
 1.449236754E+03	 1.896800049E+03
 1.449761171E+03	 1.867400024E+03
 1.450285532E+03	 1.874199951E+03
 1.450809839E+03	 1.879199951E+03
 1.451334090E+03	 1.875599976E+03
 1.451858287E+03	 1.887400024E+03
 1.452382428E+03	 1.868599976E+03
 1.452906515E+03	 1.874400024E+03
 1.453430546E+03	 1.859000000E+03
 1.453954523E+03	 1.869599976E+03
 1.454478444E+03	 1.874400024E+03
 1.455002311E+03	 1.871800049E+03
 1.455526123E+03	 1.884599976E+03
 1.456049879E+03	 1.851199951E+03
 1.456573581E+03	 1.861400024E+03
 1.457097227E+03	 1.869800049E+03
 1.457620819E+03	 1.879599976E+03
 1.458144356E+03	 1.870800049E+03
 1.458667837E+03	 1.846000000E+03
 1.459191264E+03	 1.853199951E+03
 1.459714636E+03	 1.870599976E+03
 1.460237952E+03	 1.861199951E+03
 1.460761214E+03	 1.866599976E+03
 1.461284421E+03	 1.853599976E+03
 1.461807573E+03	 1.870000000E+03
 1.462330670E+03	 1.856199951E+03
 1.462853712E+03	 1.856000000E+03
 1.463376699E+03	 1.841199951E+03
 1.463899632E+03	 1.848599976E+03
 1.464422509E+03	 1.852599976E+03
 1.464945331E+03	 1.864199951E+03
 1.465468099E+03	 1.857199951E+03
 1.465990811E+03	 1.847000000E+03
 1.466513469E+03	 1.848199951E+03
 1.467036071E+03	 1.860000000E+03
 1.467558619E+03	 1.848599976E+03
 1.468081112E+03	 1.847599976E+03
 1.468603550E+03	 1.834800049E+03
 1.469125933E+03	 1.859000000E+03
 1.469648261E+03	 1.851000000E+03
 1.470170534E+03	 1.855599976E+03
 1.470692752E+03	 1.849800049E+03
 1.471214916E+03	 1.861800049E+03
 1.471737024E+03	 1.842199951E+03
 1.472259078E+03	 1.828800049E+03
 1.472781077E+03	 1.856400024E+03
 1.473303021E+03	 1.843199951E+03
 1.473824910E+03	 1.839000000E+03
 1.474346744E+03	 1.830800049E+03
 1.474868523E+03	 1.853800049E+03
 1.475390248E+03	 1.831800049E+03
 1.475911917E+03	 1.839400024E+03
 1.476433532E+03	 1.842000000E+03
 1.476955092E+03	 1.831800049E+03
 1.477476597E+03	 1.836000000E+03
 1.477998047E+03	 1.842000000E+03
 1.478519442E+03	 1.833199951E+03
 1.479040783E+03	 1.827400024E+03
 1.479562068E+03	 1.824800049E+03
 1.480083299E+03	 1.850199951E+03
 1.480604475E+03	 1.829800049E+03
 1.481125596E+03	 1.823000000E+03
 1.481646663E+03	 1.829000000E+03
 1.482167674E+03	 1.827400024E+03
 1.482688631E+03	 1.827800049E+03
 1.483209533E+03	 1.807000000E+03
 1.483730380E+03	 1.818000000E+03
 1.484251172E+03	 1.829400024E+03
 1.484771909E+03	 1.818000000E+03
 1.485292592E+03	 1.820599976E+03
 1.485813220E+03	 1.823800049E+03
 1.486333793E+03	 1.818199951E+03
 1.486854311E+03	 1.815599976E+03
 1.487374775E+03	 1.823199951E+03
 1.487895183E+03	 1.830199951E+03
 1.488415537E+03	 1.824199951E+03
 1.488935836E+03	 1.822599976E+03
 1.489456081E+03	 1.825199951E+03
 1.489976270E+03	 1.813599976E+03
 1.490496405E+03	 1.809599976E+03
 1.491016485E+03	 1.821000000E+03
 1.491536511E+03	 1.811000000E+03
 1.492056481E+03	 1.806800049E+03
 1.492576397E+03	 1.814000000E+03
 1.493096258E+03	 1.816800049E+03
 1.493616064E+03	 1.816400024E+03
 1.494135816E+03	 1.807599976E+03
 1.494655513E+03	 1.803000000E+03
 1.495175155E+03	 1.807199951E+03
 1.495694742E+03	 1.807199951E+03
 1.496214274E+03	 1.788599976E+03
 1.496733752E+03	 1.806599976E+03
 1.497253175E+03	 1.814800049E+03
 1.497772544E+03	 1.812199951E+03
 1.498291858E+03	 1.797199951E+03
 1.498811116E+03	 1.802000000E+03
 1.499330321E+03	 1.804599976E+03
 1.499849470E+03	 1.815400024E+03
 1.500368565E+03	 1.794000000E+03
 1.500887605E+03	 1.807000000E+03
 1.501406591E+03	 1.804599976E+03
 1.501925521E+03	 1.796800049E+03
 1.502444397E+03	 1.794800049E+03
 1.502963219E+03	 1.813000000E+03
 1.503481985E+03	 1.794800049E+03
 1.504000697E+03	 1.791800049E+03
 1.504519355E+03	 1.799000000E+03
 1.505037957E+03	 1.797400024E+03
 1.505556505E+03	 1.811800049E+03
 1.506074999E+03	 1.795800049E+03
 1.506593437E+03	 1.793400024E+03
 1.507111821E+03	 1.791599976E+03
 1.507630150E+03	 1.803000000E+03
 1.508148425E+03	 1.784000000E+03
 1.508666645E+03	 1.791599976E+03
 1.509184810E+03	 1.787000000E+03
 1.509702921E+03	 1.789800049E+03
 1.510220977E+03	 1.794599976E+03
 1.510738979E+03	 1.817800049E+03
 1.511256925E+03	 1.797599976E+03
 1.511774817E+03	 1.802599976E+03
 1.512292655E+03	 1.793800049E+03
 1.512810438E+03	 1.779400024E+03
 1.513328166E+03	 1.792400024E+03
 1.513845840E+03	 1.788000000E+03
 1.514363459E+03	 1.787000000E+03
 1.514881023E+03	 1.778599976E+03
 1.515398533E+03	 1.777800049E+03
 1.515915988E+03	 1.784000000E+03
 1.516433389E+03	 1.775400024E+03
 1.516950734E+03	 1.793199951E+03
 1.517468026E+03	 1.777599976E+03
 1.517985263E+03	 1.790000000E+03
 1.518502445E+03	 1.774400024E+03
 1.519019572E+03	 1.775199951E+03
 1.519536645E+03	 1.778199951E+03
 1.520053664E+03	 1.778000000E+03
 1.520570628E+03	 1.777000000E+03
 1.521087537E+03	 1.767000000E+03
 1.521604392E+03	 1.789199951E+03
 1.522121192E+03	 1.784800049E+03
 1.522637937E+03	 1.763599976E+03
 1.523154628E+03	 1.776400024E+03
 1.523671265E+03	 1.782199951E+03
 1.524187847E+03	 1.770199951E+03
 1.524704374E+03	 1.781199951E+03
 1.525220847E+03	 1.772000000E+03
 1.525737265E+03	 1.778199951E+03
 1.526253629E+03	 1.779000000E+03
 1.526769938E+03	 1.762800049E+03
 1.527286192E+03	 1.794199951E+03
 1.527802392E+03	 1.765800049E+03
 1.528318538E+03	 1.785599976E+03
 1.528834629E+03	 1.783599976E+03
 1.529350666E+03	 1.787199951E+03
 1.529866648E+03	 1.772400024E+03
 1.530382575E+03	 1.778800049E+03
 1.530898448E+03	 1.773599976E+03
 1.531414266E+03	 1.787400024E+03
 1.531930030E+03	 1.757599976E+03
 1.532445740E+03	 1.767400024E+03
 1.532961395E+03	 1.764400024E+03
 1.533476995E+03	 1.770599976E+03
 1.533992541E+03	 1.778000000E+03
 1.534508033E+03	 1.785599976E+03
 1.535023470E+03	 1.773400024E+03
 1.535538852E+03	 1.743199951E+03
 1.536054180E+03	 1.783400024E+03
 1.536569454E+03	 1.784000000E+03
 1.537084673E+03	 1.772599976E+03
 1.537599837E+03	 1.765599976E+03
 1.538114947E+03	 1.774400024E+03
 1.538630003E+03	 1.763199951E+03
 1.539145004E+03	 1.765599976E+03
 1.539659951E+03	 1.783800049E+03
 1.540174843E+03	 1.780400024E+03
 1.540689681E+03	 1.772400024E+03
 1.541204465E+03	 1.771800049E+03
 1.541719194E+03	 1.788000000E+03
 1.542233868E+03	 1.771199951E+03
 1.542748488E+03	 1.749400024E+03
 1.543263054E+03	 1.757000000E+03
 1.543777565E+03	 1.765599976E+03
 1.544292022E+03	 1.763000000E+03
 1.544806424E+03	 1.768199951E+03
 1.545320772E+03	 1.766000000E+03
 1.545835066E+03	 1.767800049E+03
 1.546349305E+03	 1.764800049E+03
 1.546863489E+03	 1.763000000E+03
 1.547377620E+03	 1.767400024E+03
 1.547891696E+03	 1.748400024E+03
 1.548405717E+03	 1.771000000E+03
 1.548919684E+03	 1.742800049E+03
 1.549433597E+03	 1.762199951E+03
 1.549947455E+03	 1.766199951E+03
 1.550461259E+03	 1.756199951E+03
 1.550975009E+03	 1.774800049E+03
 1.551488704E+03	 1.760400024E+03
 1.552002345E+03	 1.753800049E+03
 1.552515931E+03	 1.754400024E+03
 1.553029463E+03	 1.762199951E+03
 1.553542941E+03	 1.764400024E+03
 1.554056364E+03	 1.762800049E+03
 1.554569733E+03	 1.761599976E+03
 1.555083048E+03	 1.756599976E+03
 1.555596308E+03	 1.753599976E+03
 1.556109514E+03	 1.754599976E+03
 1.556622665E+03	 1.757800049E+03
 1.557135762E+03	 1.747400024E+03
 1.557648805E+03	 1.766000000E+03
 1.558161794E+03	 1.751000000E+03
 1.558674728E+03	 1.764599976E+03
 1.559187608E+03	 1.755400024E+03
 1.559700433E+03	 1.766599976E+03
 1.560213205E+03	 1.743800049E+03
 1.560725921E+03	 1.775000000E+03
 1.561238584E+03	 1.770199951E+03
 1.561751192E+03	 1.760599976E+03
 1.562263746E+03	 1.743199951E+03
 1.562776246E+03	 1.758199951E+03
 1.563288691E+03	 1.752199951E+03
 1.563801082E+03	 1.754199951E+03
 1.564313419E+03	 1.749400024E+03
 1.564825701E+03	 1.741599976E+03
 1.565337929E+03	 1.743599976E+03
 1.565850103E+03	 1.762800049E+03
 1.566362223E+03	 1.775000000E+03
 1.566874288E+03	 1.772400024E+03
 1.567386299E+03	 1.769199951E+03
 1.567898256E+03	 1.766800049E+03
 1.568410158E+03	 1.761800049E+03
 1.568922007E+03	 1.752199951E+03
 1.569433800E+03	 1.753199951E+03
 1.569945540E+03	 1.761199951E+03
 1.570457226E+03	 1.733800049E+03
 1.570968857E+03	 1.757400024E+03
 1.571480434E+03	 1.751599976E+03
 1.571991956E+03	 1.754000000E+03
 1.572503425E+03	 1.743400024E+03
 1.573014839E+03	 1.746400024E+03
 1.573526199E+03	 1.748800049E+03
 1.574037505E+03	 1.729400024E+03
 1.574548756E+03	 1.757800049E+03
 1.575059953E+03	 1.740400024E+03
 1.575571096E+03	 1.754199951E+03
 1.576082185E+03	 1.740199951E+03
 1.576593220E+03	 1.748000000E+03
 1.577104200E+03	 1.726599976E+03
 1.577615126E+03	 1.731000000E+03
 1.578125998E+03	 1.739199951E+03
 1.578636816E+03	 1.738199951E+03
 1.579147580E+03	 1.753199951E+03
 1.579658289E+03	 1.732599976E+03
 1.580168944E+03	 1.737199951E+03
 1.580679545E+03	 1.713199951E+03
 1.581190092E+03	 1.747800049E+03
 1.581700585E+03	 1.731400024E+03
 1.582211023E+03	 1.732000000E+03
 1.582721407E+03	 1.743400024E+03
 1.583231737E+03	 1.727800049E+03
 1.583742013E+03	 1.734000000E+03
 1.584252235E+03	 1.729400024E+03
 1.584762403E+03	 1.721599976E+03
 1.585272516E+03	 1.730000000E+03
 1.585782575E+03	 1.729400024E+03
 1.586292581E+03	 1.730400024E+03
 1.586802532E+03	 1.725400024E+03
 1.587312428E+03	 1.749800049E+03
 1.587822271E+03	 1.729400024E+03
 1.588332060E+03	 1.748800049E+03
 1.588841794E+03	 1.742800049E+03
 1.589351474E+03	 1.728599976E+03
 1.589861100E+03	 1.719800049E+03
 1.590370672E+03	 1.730199951E+03
 1.590880190E+03	 1.726000000E+03
 1.591389654E+03	 1.733400024E+03
 1.591899064E+03	 1.724199951E+03
 1.592408419E+03	 1.721199951E+03
