 1.042452273E+03	 3.948399902E+03
 1.043018714E+03	 3.970000000E+03
 1.043585098E+03	 3.953399902E+03
 1.044151424E+03	 3.982000000E+03
 1.044717692E+03	 3.925199951E+03
 1.045283903E+03	 3.951600098E+03
 1.045850056E+03	 3.929600098E+03
 1.046416151E+03	 3.956199951E+03
 1.046982188E+03	 3.929199951E+03
 1.047548167E+03	 3.966000000E+03
 1.048114089E+03	 3.940000000E+03
 1.048679953E+03	 3.968600098E+03
 1.049245760E+03	 3.921399902E+03
 1.049811509E+03	 3.938000000E+03
 1.050377200E+03	 3.970000000E+03
 1.050942833E+03	 3.960600098E+03
 1.051508408E+03	 3.930399902E+03
 1.052073926E+03	 3.934000000E+03
 1.052639387E+03	 3.962800049E+03
 1.053204789E+03	 3.937600098E+03
 1.053770134E+03	 3.913199951E+03
 1.054335421E+03	 3.930800049E+03
 1.054900651E+03	 3.928800049E+03
 1.055465823E+03	 3.929000000E+03
 1.056030937E+03	 3.926199951E+03
 1.056595993E+03	 3.952800049E+03
 1.057160992E+03	 3.933399902E+03
 1.057725934E+03	 3.964000000E+03
 1.058290817E+03	 3.933800049E+03
 1.058855643E+03	 3.957399902E+03
 1.059420411E+03	 3.896199951E+03
 1.059985122E+03	 3.918199951E+03
 1.060549775E+03	 3.912399902E+03
 1.061114371E+03	 3.946199951E+03
 1.061678908E+03	 3.935399902E+03
 1.062243389E+03	 3.936399902E+03
 1.062807811E+03	 3.919199951E+03
 1.063372176E+03	 3.903000000E+03
 1.063936483E+03	 3.909600098E+03
 1.064500733E+03	 3.932800049E+03
 1.065064925E+03	 3.908199951E+03
 1.065629060E+03	 3.946000000E+03
 1.066193137E+03	 3.921199951E+03
 1.066757156E+03	 3.918800049E+03
 1.067321118E+03	 3.876800049E+03
 1.067885022E+03	 3.911600098E+03
 1.068448869E+03	 3.889600098E+03
 1.069012658E+03	 3.884600098E+03
 1.069576390E+03	 3.891800049E+03
 1.070140063E+03	 3.930000000E+03
 1.070703680E+03	 3.885000000E+03
 1.071267239E+03	 3.938800049E+03
 1.071830740E+03	 3.899399902E+03
 1.072394184E+03	 3.897399902E+03
 1.072957570E+03	 3.929600098E+03
 1.073520899E+03	 3.919800049E+03
 1.074084170E+03	 3.902800049E+03
 1.074647383E+03	 3.892600098E+03
 1.075210540E+03	 3.910800049E+03
 1.075773638E+03	 3.903800049E+03
 1.076336679E+03	 3.886199951E+03
 1.076899663E+03	 3.901800049E+03
 1.077462589E+03	 3.879600098E+03
 1.078025457E+03	 3.917199951E+03
 1.078588268E+03	 3.864000000E+03
 1.079151022E+03	 3.855800049E+03
 1.079713718E+03	 3.878199951E+03
 1.080276356E+03	 3.878000000E+03
 1.080838937E+03	 3.872399902E+03
 1.081401461E+03	 3.860800049E+03
 1.081963927E+03	 3.889600098E+03
 1.082526336E+03	 3.877199951E+03
 1.083088687E+03	 3.875000000E+03
 1.083650981E+03	 3.890600098E+03
 1.084213217E+03	 3.880399902E+03
 1.084775396E+03	 3.866399902E+03
 1.085337517E+03	 3.850800049E+03
 1.085899581E+03	 3.857199951E+03
 1.086461587E+03	 3.850399902E+03
 1.087023536E+03	 3.842000000E+03
 1.087585428E+03	 3.843399902E+03
 1.088147262E+03	 3.810800049E+03
 1.088709039E+03	 3.837000000E+03
 1.089270758E+03	 3.850199951E+03
 1.089832420E+03	 3.813600098E+03
 1.090394024E+03	 3.843000000E+03
 1.090955571E+03	 3.835600098E+03
 1.091517061E+03	 3.843600098E+03
 1.092078493E+03	 3.793399902E+03
 1.092639868E+03	 3.794199951E+03
 1.093201185E+03	 3.839399902E+03
 1.093762445E+03	 3.833800049E+03
 1.094323648E+03	 3.816600098E+03
 1.094884793E+03	 3.806800049E+03
 1.095445881E+03	 3.834199951E+03
 1.096006911E+03	 3.772199951E+03
 1.096567884E+03	 3.816199951E+03
 1.097128800E+03	 3.771000000E+03
 1.097689659E+03	 3.796600098E+03
 1.098250460E+03	 3.778800049E+03
 1.098811203E+03	 3.795399902E+03
 1.099371890E+03	 3.797000000E+03
 1.099932518E+03	 3.790600098E+03
 1.100493090E+03	 3.781800049E+03
 1.101053604E+03	 3.787399902E+03
 1.101614061E+03	 3.767000000E+03
 1.102174461E+03	 3.771199951E+03
 1.102734803E+03	 3.758600098E+03
 1.103295088E+03	 3.756399902E+03
 1.103855316E+03	 3.735600098E+03
 1.104415486E+03	 3.767000000E+03
 1.104975599E+03	 3.772199951E+03
 1.105535655E+03	 3.732000000E+03
 1.106095653E+03	 3.764800049E+03
 1.106655594E+03	 3.738199951E+03
 1.107215478E+03	 3.749399902E+03
 1.107775305E+03	 3.757600098E+03
 1.108335074E+03	 3.732000000E+03
 1.108894786E+03	 3.753199951E+03
 1.109454440E+03	 3.736000000E+03
 1.110014038E+03	 3.728800049E+03
 1.110573578E+03	 3.739000000E+03
 1.111133061E+03	 3.730199951E+03
 1.111692486E+03	 3.740000000E+03
 1.112251854E+03	 3.716399902E+03
 1.112811165E+03	 3.723399902E+03
 1.113370419E+03	 3.726399902E+03
 1.113929616E+03	 3.740399902E+03
 1.114488755E+03	 3.713000000E+03
 1.115047837E+03	 3.704600098E+03
 1.115606862E+03	 3.713399902E+03
 1.116165830E+03	 3.739399902E+03
 1.116724740E+03	 3.706000000E+03
 1.117283593E+03	 3.720800049E+03
 1.117842389E+03	 3.720800049E+03
 1.118401128E+03	 3.699199951E+03
 1.118959809E+03	 3.713600098E+03
 1.119518433E+03	 3.693199951E+03
 1.120077000E+03	 3.694600098E+03
 1.120635510E+03	 3.713000000E+03
 1.121193963E+03	 3.674800049E+03
 1.121752358E+03	 3.706800049E+03
 1.122310697E+03	 3.697199951E+03
 1.122868978E+03	 3.699800049E+03
 1.123427202E+03	 3.709600098E+03
 1.123985368E+03	 3.683199951E+03
 1.124543478E+03	 3.691199951E+03
 1.125101530E+03	 3.673199951E+03
 1.125659526E+03	 3.663800049E+03
 1.126217464E+03	 3.694600098E+03
 1.126775345E+03	 3.695600098E+03
 1.127333168E+03	 3.696000000E+03
 1.127890935E+03	 3.685800049E+03
 1.128448644E+03	 3.661800049E+03
 1.129006297E+03	 3.692199951E+03
 1.129563892E+03	 3.701000000E+03
 1.130121430E+03	 3.653800049E+03
 1.130678911E+03	 3.685199951E+03
 1.131236335E+03	 3.655600098E+03
 1.131793701E+03	 3.678600098E+03
 1.132351011E+03	 3.671800049E+03
 1.132908263E+03	 3.675399902E+03
 1.133465458E+03	 3.660000000E+03
 1.134022597E+03	 3.681600098E+03
 1.134579678E+03	 3.674000000E+03
 1.135136702E+03	 3.696399902E+03
 1.135693669E+03	 3.702600098E+03
 1.136250578E+03	 3.678600098E+03
 1.136807431E+03	 3.691399902E+03
 1.137364227E+03	 3.694399902E+03
 1.137920965E+03	 3.685600098E+03
 1.138477647E+03	 3.667199951E+03
 1.139034271E+03	 3.673199951E+03
 1.139590839E+03	 3.714000000E+03
 1.140147349E+03	 3.636600098E+03
 1.140703802E+03	 3.651600098E+03
 1.141260198E+03	 3.662000000E+03
 1.141816537E+03	 3.675800049E+03
 1.142372820E+03	 3.661600098E+03
 1.142929045E+03	 3.659000000E+03
 1.143485213E+03	 3.664399902E+03
 1.144041323E+03	 3.682399902E+03
 1.144597377E+03	 3.681199951E+03
 1.145153374E+03	 3.675199951E+03
 1.145709314E+03	 3.653399902E+03
 1.146265197E+03	 3.685000000E+03
 1.146821023E+03	 3.699199951E+03
 1.147376792E+03	 3.708000000E+03
 1.147932503E+03	 3.663000000E+03
 1.148488158E+03	 3.663399902E+03
 1.149043756E+03	 3.645399902E+03
 1.149599297E+03	 3.669000000E+03
 1.150154781E+03	 3.668199951E+03
 1.150710207E+03	 3.719199951E+03
 1.151265577E+03	 3.653800049E+03
 1.151820890E+03	 3.670000000E+03
 1.152376146E+03	 3.655600098E+03
 1.152931345E+03	 3.682800049E+03
 1.153486487E+03	 3.676199951E+03
 1.154041572E+03	 3.662199951E+03
 1.154596600E+03	 3.670199951E+03
 1.155151571E+03	 3.692199951E+03
 1.155706485E+03	 3.670399902E+03
 1.156261342E+03	 3.682000000E+03
 1.156816142E+03	 3.664199951E+03
 1.157370885E+03	 3.692399902E+03
 1.157925572E+03	 3.650399902E+03
 1.158480201E+03	 3.696000000E+03
 1.159034774E+03	 3.665399902E+03
 1.159589289E+03	 3.687800049E+03
 1.160143748E+03	 3.658399902E+03
 1.160698149E+03	 3.679399902E+03
 1.161252494E+03	 3.669600098E+03
 1.161806782E+03	 3.647399902E+03
 1.162361013E+03	 3.686800049E+03
 1.162915187E+03	 3.700399902E+03
 1.163469304E+03	 3.643800049E+03
 1.164023364E+03	 3.653600098E+03
 1.164577368E+03	 3.664800049E+03
 1.165131314E+03	 3.680399902E+03
 1.165685204E+03	 3.670600098E+03
 1.166239036E+03	 3.654800049E+03
 1.166792812E+03	 3.628600098E+03
 1.167346531E+03	 3.663600098E+03
 1.167900193E+03	 3.673199951E+03
 1.168453798E+03	 3.631800049E+03
 1.169007347E+03	 3.658399902E+03
 1.169560838E+03	 3.668399902E+03
 1.170114273E+03	 3.679399902E+03
 1.170667650E+03	 3.658000000E+03
 1.171220971E+03	 3.663399902E+03
 1.171774235E+03	 3.668000000E+03
 1.172327443E+03	 3.646199951E+03
 1.172880593E+03	 3.666199951E+03
 1.173433687E+03	 3.688800049E+03
 1.173986723E+03	 3.628399902E+03
 1.174539703E+03	 3.689199951E+03
 1.175092626E+03	 3.637399902E+03
 1.175645493E+03	 3.643600098E+03
 1.176198302E+03	 3.665000000E+03
 1.176751055E+03	 3.663600098E+03
 1.177303751E+03	 3.662600098E+03
 1.177856390E+03	 3.680600098E+03
 1.178408972E+03	 3.623399902E+03
 1.178961498E+03	 3.657199951E+03
 1.179513966E+03	 3.659399902E+03
 1.180066378E+03	 3.619800049E+03
 1.180618733E+03	 3.631199951E+03
 1.181171032E+03	 3.649399902E+03
 1.181723273E+03	 3.611800049E+03
 1.182275458E+03	 3.656199951E+03
 1.182827586E+03	 3.680199951E+03
 1.183379657E+03	 3.647800049E+03
 1.183931672E+03	 3.614600098E+03
 1.184483630E+03	 3.671000000E+03
 1.185035531E+03	 3.644000000E+03
 1.185587375E+03	 3.623600098E+03
 1.186139162E+03	 3.637399902E+03
 1.186690893E+03	 3.628399902E+03
 1.187242567E+03	 3.620199951E+03
 1.187794184E+03	 3.666600098E+03
 1.188345745E+03	 3.631399902E+03
 1.188897249E+03	 3.640000000E+03
 1.189448696E+03	 3.637399902E+03
 1.190000086E+03	 3.631399902E+03
 1.190551420E+03	 3.614199951E+03
 1.191102697E+03	 3.629199951E+03
 1.191653918E+03	 3.654000000E+03
 1.192205081E+03	 3.613399902E+03
 1.192756188E+03	 3.632199951E+03
 1.193307238E+03	 3.643800049E+03
 1.193858232E+03	 3.628000000E+03
 1.194409169E+03	 3.628600098E+03
 1.194960049E+03	 3.653000000E+03
 1.195510872E+03	 3.622800049E+03
 1.196061639E+03	 3.611000000E+03
 1.196612349E+03	 3.615000000E+03
 1.197163003E+03	 3.628800049E+03
 1.197713599E+03	 3.627399902E+03
 1.198264139E+03	 3.627600098E+03
 1.198814623E+03	 3.641000000E+03
 1.199365050E+03	 3.587600098E+03
 1.199915420E+03	 3.624600098E+03
 1.200465734E+03	 3.631800049E+03
 1.201015990E+03	 3.618600098E+03
 1.201566191E+03	 3.617600098E+03
 1.202116334E+03	 3.607399902E+03
 1.202666421E+03	 3.624600098E+03
 1.203216452E+03	 3.605000000E+03
 1.203766425E+03	 3.594000000E+03
 1.204316343E+03	 3.600399902E+03
 1.204866203E+03	 3.605199951E+03
 1.205416007E+03	 3.605800049E+03
 1.205965754E+03	 3.605800049E+03
 1.206515445E+03	 3.594399902E+03
 1.207065079E+03	 3.598800049E+03
 1.207614657E+03	 3.627399902E+03
 1.208164177E+03	 3.560000000E+03
 1.208713642E+03	 3.600000000E+03
 1.209263050E+03	 3.575399902E+03
 1.209812401E+03	 3.591000000E+03
 1.210361695E+03	 3.598399902E+03
 1.210910933E+03	 3.624399902E+03
 1.211460115E+03	 3.564800049E+03
 1.212009240E+03	 3.602800049E+03
 1.212558308E+03	 3.573399902E+03
 1.213107320E+03	 3.583000000E+03
 1.213656275E+03	 3.560800049E+03
 1.214205174E+03	 3.602800049E+03
 1.214754016E+03	 3.578600098E+03
 1.215302801E+03	 3.568600098E+03
 1.215851530E+03	 3.595800049E+03
 1.216400203E+03	 3.601600098E+03
 1.216948819E+03	 3.577600098E+03
 1.217497378E+03	 3.580600098E+03
 1.218045881E+03	 3.561000000E+03
 1.218594327E+03	 3.576600098E+03
 1.219142717E+03	 3.566600098E+03
 1.219691051E+03	 3.561600098E+03
 1.220239327E+03	 3.594000000E+03
 1.220787548E+03	 3.546399902E+03
 1.221335712E+03	 3.579000000E+03
 1.221883819E+03	 3.580000000E+03
 1.222431870E+03	 3.557600098E+03
 1.222979864E+03	 3.551600098E+03
 1.223527802E+03	 3.575399902E+03
 1.224075683E+03	 3.551800049E+03
 1.224623508E+03	 3.578000000E+03
 1.225171277E+03	 3.566000000E+03
 1.225718989E+03	 3.585600098E+03
 1.226266644E+03	 3.544399902E+03
 1.226814243E+03	 3.583399902E+03
 1.227361786E+03	 3.550800049E+03
 1.227909272E+03	 3.581600098E+03
 1.228456702E+03	 3.533199951E+03
 1.229004075E+03	 3.572800049E+03
 1.229551392E+03	 3.551399902E+03
 1.230098652E+03	 3.547600098E+03
 1.230645856E+03	 3.566800049E+03
 1.231193003E+03	 3.553600098E+03
 1.231740094E+03	 3.557600098E+03
 1.232287129E+03	 3.558800049E+03
 1.232834107E+03	 3.551399902E+03
 1.233381029E+03	 3.506000000E+03
 1.233927894E+03	 3.545199951E+03
 1.234474703E+03	 3.543800049E+03
 1.235021455E+03	 3.542800049E+03
 1.235568151E+03	 3.540399902E+03
 1.236114791E+03	 3.542399902E+03
 1.236661374E+03	 3.560399902E+03
 1.237207901E+03	 3.530199951E+03
 1.237754372E+03	 3.538399902E+03
 1.238300786E+03	 3.547000000E+03
 1.238847144E+03	 3.510399902E+03
 1.239393445E+03	 3.542800049E+03
 1.239939690E+03	 3.512000000E+03
 1.240485879E+03	 3.552199951E+03
 1.241032011E+03	 3.531000000E+03
 1.241578087E+03	 3.532199951E+03
 1.242124106E+03	 3.494399902E+03
 1.242670070E+03	 3.534600098E+03
 1.243215976E+03	 3.518600098E+03
 1.243761827E+03	 3.530399902E+03
 1.244307621E+03	 3.521199951E+03
 1.244853359E+03	 3.542199951E+03
 1.245399040E+03	 3.545199951E+03
 1.245944665E+03	 3.554000000E+03
 1.246490234E+03	 3.511600098E+03
 1.247035746E+03	 3.512800049E+03
 1.247581203E+03	 3.494000000E+03
 1.248126602E+03	 3.513800049E+03
 1.248671946E+03	 3.494600098E+03
 1.249217233E+03	 3.535000000E+03
 1.249762464E+03	 3.513199951E+03
 1.250307638E+03	 3.520000000E+03
 1.250852757E+03	 3.545199951E+03
 1.251397819E+03	 3.530600098E+03
 1.251942824E+03	 3.504199951E+03
 1.252487774E+03	 3.501800049E+03
 1.253032667E+03	 3.549199951E+03
 1.253577503E+03	 3.539800049E+03
 1.254122284E+03	 3.512800049E+03
 1.254667008E+03	 3.480800049E+03
 1.255211676E+03	 3.506800049E+03
 1.255756288E+03	 3.467399902E+03
 1.256300843E+03	 3.512600098E+03
 1.256845342E+03	 3.491199951E+03
 1.257389785E+03	 3.509800049E+03
 1.257934172E+03	 3.511800049E+03
 1.258478502E+03	 3.495800049E+03
 1.259022776E+03	 3.487600098E+03
 1.259566994E+03	 3.524399902E+03
 1.260111156E+03	 3.483800049E+03
 1.260655261E+03	 3.489199951E+03
 1.261199311E+03	 3.463600098E+03
 1.261743304E+03	 3.475800049E+03
 1.262287240E+03	 3.483399902E+03
 1.262831121E+03	 3.496399902E+03
 1.263374945E+03	 3.446600098E+03
 1.263918713E+03	 3.515800049E+03
 1.264462425E+03	 3.488000000E+03
 1.265006081E+03	 3.496399902E+03
 1.265549680E+03	 3.484399902E+03
 1.266093223E+03	 3.481399902E+03
 1.266636711E+03	 3.465199951E+03
 1.267180141E+03	 3.477399902E+03
 1.267723516E+03	 3.492399902E+03
 1.268266835E+03	 3.467000000E+03
 1.268810097E+03	 3.495199951E+03
 1.269353303E+03	 3.452000000E+03
 1.269896453E+03	 3.468800049E+03
 1.270439547E+03	 3.435199951E+03
 1.270982584E+03	 3.477800049E+03
 1.271525566E+03	 3.488199951E+03
 1.272068491E+03	 3.485399902E+03
 1.272611360E+03	 3.461800049E+03
 1.273154173E+03	 3.462399902E+03
 1.273696930E+03	 3.460399902E+03
 1.274239631E+03	 3.472000000E+03
 1.274782275E+03	 3.490199951E+03
 1.275324864E+03	 3.465000000E+03
 1.275867396E+03	 3.461399902E+03
 1.276409872E+03	 3.483600098E+03
 1.276952292E+03	 3.471399902E+03
 1.277494656E+03	 3.433199951E+03
 1.278036964E+03	 3.478000000E+03
 1.278579215E+03	 3.462800049E+03
 1.279121411E+03	 3.444199951E+03
 1.279663550E+03	 3.470600098E+03
 1.280205634E+03	 3.449199951E+03
 1.280747661E+03	 3.458800049E+03
 1.281289632E+03	 3.454600098E+03
 1.281831547E+03	 3.441800049E+03
 1.282373406E+03	 3.470000000E+03
 1.282915209E+03	 3.464199951E+03
 1.283456955E+03	 3.409399902E+03
 1.283998646E+03	 3.448600098E+03
 1.284540281E+03	 3.439000000E+03
 1.285081859E+03	 3.441199951E+03
 1.285623381E+03	 3.425399902E+03
 1.286164848E+03	 3.470000000E+03
 1.286706258E+03	 3.469399902E+03
 1.287247612E+03	 3.436399902E+03
 1.287788911E+03	 3.444399902E+03
 1.288330153E+03	 3.411600098E+03
 1.288871339E+03	 3.443000000E+03
 1.289412469E+03	 3.460199951E+03
 1.289953543E+03	 3.476399902E+03
 1.290494561E+03	 3.445600098E+03
 1.291035523E+03	 3.453399902E+03
 1.291576428E+03	 3.430000000E+03
 1.292117278E+03	 3.432800049E+03
 1.292658072E+03	 3.445000000E+03
 1.293198810E+03	 3.433199951E+03
 1.293739492E+03	 3.426199951E+03
 1.294280118E+03	 3.412000000E+03
 1.294820687E+03	 3.433800049E+03
 1.295361201E+03	 3.459399902E+03
 1.295901659E+03	 3.419000000E+03
 1.296442061E+03	 3.425000000E+03
 1.296982406E+03	 3.449000000E+03
 1.297522696E+03	 3.429800049E+03
 1.298062930E+03	 3.411199951E+03
 1.298603108E+03	 3.416000000E+03
 1.299143229E+03	 3.426800049E+03
 1.299683295E+03	 3.422600098E+03
 1.300223305E+03	 3.382800049E+03
 1.300763259E+03	 3.407199951E+03
 1.301303157E+03	 3.418600098E+03
 1.301842999E+03	 3.435000000E+03
 1.302382785E+03	 3.429000000E+03
 1.302922515E+03	 3.418600098E+03
 1.303462189E+03	 3.424399902E+03
 1.304001807E+03	 3.407000000E+03
 1.304541369E+03	 3.418199951E+03
 1.305080875E+03	 3.414600098E+03
 1.305620326E+03	 3.443800049E+03
 1.306159720E+03	 3.397199951E+03
 1.306699058E+03	 3.426800049E+03
 1.307238341E+03	 3.402000000E+03
 1.307777567E+03	 3.407000000E+03
 1.308316738E+03	 3.382199951E+03
 1.308855853E+03	 3.418399902E+03
 1.309394912E+03	 3.410800049E+03
 1.309933915E+03	 3.415000000E+03
 1.310472862E+03	 3.394600098E+03
 1.311011753E+03	 3.398800049E+03
 1.311550588E+03	 3.388000000E+03
 1.312089367E+03	 3.373199951E+03
 1.312628090E+03	 3.398199951E+03
 1.313166758E+03	 3.388199951E+03
 1.313705370E+03	 3.427000000E+03
 1.314243925E+03	 3.391000000E+03
 1.314782425E+03	 3.408000000E+03
 1.315320869E+03	 3.390000000E+03
 1.315859257E+03	 3.385000000E+03
 1.316397589E+03	 3.380600098E+03
 1.316935866E+03	 3.429199951E+03
 1.317474086E+03	 3.402800049E+03
 1.318012251E+03	 3.417600098E+03
 1.318550360E+03	 3.365600098E+03
 1.319088413E+03	 3.390600098E+03
 1.319626410E+03	 3.403600098E+03
 1.320164351E+03	 3.410600098E+03
 1.320702236E+03	 3.413399902E+03
 1.321240066E+03	 3.403000000E+03
 1.321777839E+03	 3.377399902E+03
 1.322315557E+03	 3.386000000E+03
 1.322853219E+03	 3.372000000E+03
 1.323390826E+03	 3.375600098E+03
 1.323928376E+03	 3.406600098E+03
 1.324465871E+03	 3.376199951E+03
 1.325003309E+03	 3.387199951E+03
 1.325540692E+03	 3.361000000E+03
 1.326078020E+03	 3.396800049E+03
 1.326615291E+03	 3.382199951E+03
 1.327152506E+03	 3.408800049E+03
 1.327689666E+03	 3.378800049E+03
 1.328226770E+03	 3.369399902E+03
 1.328763818E+03	 3.403600098E+03
 1.329300811E+03	 3.393000000E+03
 1.329837747E+03	 3.371399902E+03
 1.330374628E+03	 3.380600098E+03
 1.330911453E+03	 3.335000000E+03
 1.331448222E+03	 3.372399902E+03
 1.331984936E+03	 3.369600098E+03
 1.332521594E+03	 3.395800049E+03
 1.333058196E+03	 3.375000000E+03
 1.333594742E+03	 3.353800049E+03
 1.334131232E+03	 3.355600098E+03
 1.334667667E+03	 3.373199951E+03
 1.335204046E+03	 3.382600098E+03
 1.335740369E+03	 3.332399902E+03
 1.336276637E+03	 3.345399902E+03
 1.336812848E+03	 3.373199951E+03
 1.337349004E+03	 3.368800049E+03
 1.337885105E+03	 3.354000000E+03
 1.338421149E+03	 3.370600098E+03
 1.338957138E+03	 3.353399902E+03
 1.339493071E+03	 3.401399902E+03
 1.340028949E+03	 3.354399902E+03
 1.340564770E+03	 3.381199951E+03
 1.341100536E+03	 3.340199951E+03
 1.341636246E+03	 3.363600098E+03
 1.342171901E+03	 3.346399902E+03
 1.342707500E+03	 3.353600098E+03
 1.343243043E+03	 3.335000000E+03
 1.343778530E+03	 3.378199951E+03
 1.344313962E+03	 3.355399902E+03
 1.344849338E+03	 3.335000000E+03
 1.345384659E+03	 3.338000000E+03
 1.345919923E+03	 3.377600098E+03
 1.346455133E+03	 3.358000000E+03
 1.346990286E+03	 3.350399902E+03
 1.347525384E+03	 3.394399902E+03
 1.348060426E+03	 3.363800049E+03
 1.348595412E+03	 3.366000000E+03
 1.349130343E+03	 3.354000000E+03
 1.349665218E+03	 3.369199951E+03
 1.350200037E+03	 3.356399902E+03
 1.350734801E+03	 3.342600098E+03
 1.351269509E+03	 3.329800049E+03
 1.351804162E+03	 3.389800049E+03
 1.352338758E+03	 3.340600098E+03
 1.352873300E+03	 3.345000000E+03
 1.353407785E+03	 3.364000000E+03
 1.353942215E+03	 3.344800049E+03
 1.354476589E+03	 3.330199951E+03
 1.355010908E+03	 3.353600098E+03
 1.355545171E+03	 3.365199951E+03
 1.356079379E+03	 3.339399902E+03
 1.356613530E+03	 3.347000000E+03
 1.357147627E+03	 3.336800049E+03
 1.357681667E+03	 3.359199951E+03
 1.358215652E+03	 3.344399902E+03
 1.358749582E+03	 3.353199951E+03
 1.359283456E+03	 3.337399902E+03
 1.359817274E+03	 3.338800049E+03
 1.360351037E+03	 3.298199951E+03
 1.360884744E+03	 3.331600098E+03
 1.361418395E+03	 3.332199951E+03
 1.361951991E+03	 3.328399902E+03
 1.362485531E+03	 3.312800049E+03
 1.363019016E+03	 3.343800049E+03
 1.363552445E+03	 3.325800049E+03
 1.364085819E+03	 3.343600098E+03
 1.364619137E+03	 3.312399902E+03
 1.365152400E+03	 3.323399902E+03
 1.365685607E+03	 3.339800049E+03
 1.366218758E+03	 3.300199951E+03
 1.366751854E+03	 3.340600098E+03
 1.367284894E+03	 3.331199951E+03
 1.367817879E+03	 3.323600098E+03
 1.368350808E+03	 3.311399902E+03
 1.368883682E+03	 3.340000000E+03
 1.369416500E+03	 3.319199951E+03
 1.369949263E+03	 3.348800049E+03
 1.370481970E+03	 3.330800049E+03
 1.371014622E+03	 3.317399902E+03
 1.371547218E+03	 3.280399902E+03
 1.372079758E+03	 3.332000000E+03
 1.372612244E+03	 3.278399902E+03
 1.373144673E+03	 3.328399902E+03
 1.373677047E+03	 3.292000000E+03
 1.374209366E+03	 3.303000000E+03
 1.374741629E+03	 3.308000000E+03
 1.375273836E+03	 3.296000000E+03
 1.375805989E+03	 3.321399902E+03
 1.376338085E+03	 3.304000000E+03
 1.376870126E+03	 3.295600098E+03
 1.377402112E+03	 3.282399902E+03
 1.377934042E+03	 3.301000000E+03
 1.378465917E+03	 3.287000000E+03
 1.378997736E+03	 3.311800049E+03
 1.379529500E+03	 3.299199951E+03
 1.380061208E+03	 3.310199951E+03
 1.380592861E+03	 3.271800049E+03
 1.381124459E+03	 3.313199951E+03
 1.381656000E+03	 3.265800049E+03
 1.382187487E+03	 3.292800049E+03
 1.382718918E+03	 3.303399902E+03
 1.383250294E+03	 3.301199951E+03
 1.383781614E+03	 3.308199951E+03
 1.384312879E+03	 3.274399902E+03
 1.384844088E+03	 3.291399902E+03
 1.385375242E+03	 3.284600098E+03
 1.385906340E+03	 3.252600098E+03
 1.386437383E+03	 3.293800049E+03
 1.386968371E+03	 3.274000000E+03
 1.387499303E+03	 3.257600098E+03
 1.388030180E+03	 3.292199951E+03
 1.388561001E+03	 3.258800049E+03
 1.389091767E+03	 3.313199951E+03
 1.389622478E+03	 3.309800049E+03
 1.390153133E+03	 3.283600098E+03
 1.390683733E+03	 3.281800049E+03
 1.391214277E+03	 3.288000000E+03
 1.391744766E+03	 3.258600098E+03
 1.392275200E+03	 3.242800049E+03
 1.392805578E+03	 3.293399902E+03
 1.393335901E+03	 3.251800049E+03
 1.393866168E+03	 3.288199951E+03
 1.394396381E+03	 3.264600098E+03
 1.394926537E+03	 3.269000000E+03
 1.395456639E+03	 3.264000000E+03
 1.395986685E+03	 3.272399902E+03
 1.396516675E+03	 3.252199951E+03
 1.397046611E+03	 3.287199951E+03
 1.397576491E+03	 3.277000000E+03
 1.398106315E+03	 3.267600098E+03
 1.398636084E+03	 3.273000000E+03
 1.399165798E+03	 3.259800049E+03
 1.399695457E+03	 3.290399902E+03
 1.400225060E+03	 3.251199951E+03
 1.400754608E+03	 3.279000000E+03
 1.401284101E+03	 3.251399902E+03
 1.401813538E+03	 3.292800049E+03
 1.402342920E+03	 3.269199951E+03
 1.402872247E+03	 3.266600098E+03
 1.403401518E+03	 3.267399902E+03
 1.403930734E+03	 3.253600098E+03
 1.404459895E+03	 3.251199951E+03
 1.404989000E+03	 3.292199951E+03
 1.405518050E+03	 3.268199951E+03
 1.406047045E+03	 3.250800049E+03
 1.406575984E+03	 3.276000000E+03
 1.407104869E+03	 3.254399902E+03
 1.407633697E+03	 3.265199951E+03
 1.408162471E+03	 3.236600098E+03
 1.408691189E+03	 3.270600098E+03
 1.409219852E+03	 3.232000000E+03
 1.409748460E+03	 3.282800049E+03
 1.410277013E+03	 3.248600098E+03
 1.410805510E+03	 3.263600098E+03
 1.411333952E+03	 3.238000000E+03
 1.411862339E+03	 3.255000000E+03
 1.412390670E+03	 3.240600098E+03
 1.412918946E+03	 3.287800049E+03
 1.413447167E+03	 3.238800049E+03
 1.413975333E+03	 3.250199951E+03
 1.414503444E+03	 3.264399902E+03
 1.415031499E+03	 3.290600098E+03
 1.415559499E+03	 3.265800049E+03
 1.416087444E+03	 3.272800049E+03
 1.416615333E+03	 3.267800049E+03
 1.417143167E+03	 3.258399902E+03
 1.417670947E+03	 3.280600098E+03
 1.418198670E+03	 3.230800049E+03
 1.418726339E+03	 3.252000000E+03
 1.419253952E+03	 3.231800049E+03
 1.419781511E+03	 3.247199951E+03
 1.420309014E+03	 3.237199951E+03
 1.420836461E+03	 3.252600098E+03
 1.421363854E+03	 3.237800049E+03
 1.421891191E+03	 3.276800049E+03
 1.422418474E+03	 3.238199951E+03
 1.422945701E+03	 3.283000000E+03
 1.423472872E+03	 3.216199951E+03
 1.423999989E+03	 3.246399902E+03
 1.424527050E+03	 3.235199951E+03
 1.425054057E+03	 3.233199951E+03
 1.425581008E+03	 3.243399902E+03
 1.426107904E+03	 3.246600098E+03
 1.426634745E+03	 3.255800049E+03
 1.427161530E+03	 3.249199951E+03
 1.427688261E+03	 3.229800049E+03
 1.428214936E+03	 3.255800049E+03
 1.428741556E+03	 3.232399902E+03
 1.429268121E+03	 3.243800049E+03
 1.429794631E+03	 3.235800049E+03
 1.430321085E+03	 3.260600098E+03
 1.430847485E+03	 3.245800049E+03
 1.431373829E+03	 3.184399902E+03
 1.431900118E+03	 3.258800049E+03
 1.432426353E+03	 3.251199951E+03
 1.432952532E+03	 3.235399902E+03
 1.433478655E+03	 3.270800049E+03
 1.434004724E+03	 3.244399902E+03
 1.434530738E+03	 3.237800049E+03
 1.435056696E+03	 3.222600098E+03
 1.435582600E+03	 3.235600098E+03
 1.436108448E+03	 3.208399902E+03
 1.436634241E+03	 3.258199951E+03
 1.437159979E+03	 3.236199951E+03
 1.437685662E+03	 3.252199951E+03
 1.438211290E+03	 3.219800049E+03
 1.438736863E+03	 3.246199951E+03
 1.439262381E+03	 3.209600098E+03
 1.439787843E+03	 3.247000000E+03
 1.440313251E+03	 3.236800049E+03
 1.440838603E+03	 3.227399902E+03
 1.441363900E+03	 3.221399902E+03
 1.441889143E+03	 3.208399902E+03
 1.442414330E+03	 3.213600098E+03
 1.442939462E+03	 3.224399902E+03
 1.443464539E+03	 3.226199951E+03
 1.443989561E+03	 3.239800049E+03
 1.444514528E+03	 3.194600098E+03
 1.445039440E+03	 3.212800049E+03
 1.445564297E+03	 3.204800049E+03
 1.446089099E+03	 3.221800049E+03
 1.446613846E+03	 3.214000000E+03
 1.447138537E+03	 3.212600098E+03
 1.447663174E+03	 3.212800049E+03
 1.448187756E+03	 3.185800049E+03
 1.448712282E+03	 3.251199951E+03
 1.449236754E+03	 3.233399902E+03
 1.449761171E+03	 3.186399902E+03
 1.450285532E+03	 3.224199951E+03
 1.450809839E+03	 3.202199951E+03
 1.451334090E+03	 3.213399902E+03
 1.451858287E+03	 3.210800049E+03
 1.452382428E+03	 3.214199951E+03
 1.452906515E+03	 3.219000000E+03
 1.453430546E+03	 3.190399902E+03
 1.453954523E+03	 3.208199951E+03
 1.454478444E+03	 3.222600098E+03
 1.455002311E+03	 3.215000000E+03
 1.455526123E+03	 3.216199951E+03
 1.456049879E+03	 3.216000000E+03
 1.456573581E+03	 3.232000000E+03
 1.457097227E+03	 3.211199951E+03
 1.457620819E+03	 3.201800049E+03
 1.458144356E+03	 3.202600098E+03
 1.458667837E+03	 3.219800049E+03
 1.459191264E+03	 3.200399902E+03
 1.459714636E+03	 3.213000000E+03
 1.460237952E+03	 3.199399902E+03
 1.460761214E+03	 3.210199951E+03
 1.461284421E+03	 3.229199951E+03
 1.461807573E+03	 3.186199951E+03
 1.462330670E+03	 3.211000000E+03
 1.462853712E+03	 3.227000000E+03
 1.463376699E+03	 3.188600098E+03
 1.463899632E+03	 3.203800049E+03
 1.464422509E+03	 3.198600098E+03
 1.464945331E+03	 3.188000000E+03
 1.465468099E+03	 3.184199951E+03
 1.465990811E+03	 3.187800049E+03
 1.466513469E+03	 3.189199951E+03
 1.467036071E+03	 3.192199951E+03
 1.467558619E+03	 3.220800049E+03
 1.468081112E+03	 3.195399902E+03
 1.468603550E+03	 3.213600098E+03
 1.469125933E+03	 3.185199951E+03
 1.469648261E+03	 3.206199951E+03
 1.470170534E+03	 3.194399902E+03
 1.470692752E+03	 3.160600098E+03
 1.471214916E+03	 3.198199951E+03
 1.471737024E+03	 3.197399902E+03
 1.472259078E+03	 3.185800049E+03
 1.472781077E+03	 3.179000000E+03
 1.473303021E+03	 3.169199951E+03
 1.473824910E+03	 3.202600098E+03
 1.474346744E+03	 3.186000000E+03
 1.474868523E+03	 3.220199951E+03
 1.475390248E+03	 3.173399902E+03
 1.475911917E+03	 3.166800049E+03
 1.476433532E+03	 3.170600098E+03
 1.476955092E+03	 3.194800049E+03
 1.477476597E+03	 3.167800049E+03
 1.477998047E+03	 3.188000000E+03
 1.478519442E+03	 3.158800049E+03
 1.479040783E+03	 3.168600098E+03
 1.479562068E+03	 3.177800049E+03
 1.480083299E+03	 3.160000000E+03
 1.480604475E+03	 3.169600098E+03
 1.481125596E+03	 3.199800049E+03
 1.481646663E+03	 3.151600098E+03
 1.482167674E+03	 3.167199951E+03
 1.482688631E+03	 3.157600098E+03
 1.483209533E+03	 3.172800049E+03
 1.483730380E+03	 3.180600098E+03
 1.484251172E+03	 3.160399902E+03
 1.484771909E+03	 3.165199951E+03
 1.485292592E+03	 3.128600098E+03
 1.485813220E+03	 3.162000000E+03
 1.486333793E+03	 3.155600098E+03
 1.486854311E+03	 3.156199951E+03
 1.487374775E+03	 3.147800049E+03
 1.487895183E+03	 3.143800049E+03
 1.488415537E+03	 3.149399902E+03
 1.488935836E+03	 3.165199951E+03
 1.489456081E+03	 3.162600098E+03
 1.489976270E+03	 3.152199951E+03
 1.490496405E+03	 3.177199951E+03
 1.491016485E+03	 3.162800049E+03
 1.491536511E+03	 3.151800049E+03
 1.492056481E+03	 3.161399902E+03
 1.492576397E+03	 3.135600098E+03
 1.493096258E+03	 3.121600098E+03
 1.493616064E+03	 3.143199951E+03
 1.494135816E+03	 3.149399902E+03
 1.494655513E+03	 3.141000000E+03
 1.495175155E+03	 3.142800049E+03
 1.495694742E+03	 3.143600098E+03
 1.496214274E+03	 3.106399902E+03
 1.496733752E+03	 3.153600098E+03
 1.497253175E+03	 3.120600098E+03
 1.497772544E+03	 3.116399902E+03
 1.498291858E+03	 3.128000000E+03
 1.498811116E+03	 3.120000000E+03
 1.499330321E+03	 3.153800049E+03
 1.499849470E+03	 3.140000000E+03
 1.500368565E+03	 3.122800049E+03
 1.500887605E+03	 3.103199951E+03
 1.501406591E+03	 3.133600098E+03
 1.501925521E+03	 3.106399902E+03
 1.502444397E+03	 3.134399902E+03
 1.502963219E+03	 3.122600098E+03
 1.503481985E+03	 3.163000000E+03
 1.504000697E+03	 3.134000000E+03
 1.504519355E+03	 3.164199951E+03
 1.505037957E+03	 3.093399902E+03
 1.505556505E+03	 3.128000000E+03
 1.506074999E+03	 3.120199951E+03
 1.506593437E+03	 3.132800049E+03
 1.507111821E+03	 3.119000000E+03
 1.507630150E+03	 3.105399902E+03
 1.508148425E+03	 3.112399902E+03
 1.508666645E+03	 3.108800049E+03
 1.509184810E+03	 3.124399902E+03
 1.509702921E+03	 3.113600098E+03
 1.510220977E+03	 3.117800049E+03
 1.510738979E+03	 3.107600098E+03
 1.511256925E+03	 3.112399902E+03
 1.511774817E+03	 3.143199951E+03
 1.512292655E+03	 3.111199951E+03
 1.512810438E+03	 3.086199951E+03
 1.513328166E+03	 3.107399902E+03
 1.513845840E+03	 3.124800049E+03
 1.514363459E+03	 3.128000000E+03
 1.514881023E+03	 3.127399902E+03
 1.515398533E+03	 3.107000000E+03
 1.515915988E+03	 3.113000000E+03
 1.516433389E+03	 3.112399902E+03
 1.516950734E+03	 3.084800049E+03
 1.517468026E+03	 3.109199951E+03
 1.517985263E+03	 3.089800049E+03
 1.518502445E+03	 3.110000000E+03
 1.519019572E+03	 3.082399902E+03
 1.519536645E+03	 3.098399902E+03
 1.520053664E+03	 3.099000000E+03
 1.520570628E+03	 3.093600098E+03
 1.521087537E+03	 3.081399902E+03
 1.521604392E+03	 3.088199951E+03
 1.522121192E+03	 3.080199951E+03
 1.522637937E+03	 3.110399902E+03
 1.523154628E+03	 3.114800049E+03
 1.523671265E+03	 3.104800049E+03
 1.524187847E+03	 3.099399902E+03
 1.524704374E+03	 3.086000000E+03
 1.525220847E+03	 3.074800049E+03
 1.525737265E+03	 3.097600098E+03
 1.526253629E+03	 3.109000000E+03
 1.526769938E+03	 3.079000000E+03
 1.527286192E+03	 3.106800049E+03
 1.527802392E+03	 3.096399902E+03
 1.528318538E+03	 3.100199951E+03
 1.528834629E+03	 3.083800049E+03
 1.529350666E+03	 3.097399902E+03
 1.529866648E+03	 3.072800049E+03
 1.530382575E+03	 3.112600098E+03
 1.530898448E+03	 3.083199951E+03
 1.531414266E+03	 3.113399902E+03
 1.531930030E+03	 3.078399902E+03
 1.532445740E+03	 3.078800049E+03
 1.532961395E+03	 3.113199951E+03
 1.533476995E+03	 3.066000000E+03
 1.533992541E+03	 3.092800049E+03
 1.534508033E+03	 3.088800049E+03
 1.535023470E+03	 3.104800049E+03
 1.535538852E+03	 3.100600098E+03
 1.536054180E+03	 3.095000000E+03
 1.536569454E+03	 3.075000000E+03
 1.537084673E+03	 3.071399902E+03
 1.537599837E+03	 3.098600098E+03
 1.538114947E+03	 3.071199951E+03
 1.538630003E+03	 3.092800049E+03
 1.539145004E+03	 3.068399902E+03
 1.539659951E+03	 3.081399902E+03
 1.540174843E+03	 3.067000000E+03
 1.540689681E+03	 3.100800049E+03
 1.541204465E+03	 3.038600098E+03
 1.541719194E+03	 3.094399902E+03
 1.542233868E+03	 3.089199951E+03
 1.542748488E+03	 3.081199951E+03
 1.543263054E+03	 3.079399902E+03
 1.543777565E+03	 3.063800049E+03
 1.544292022E+03	 3.114399902E+03
 1.544806424E+03	 3.062199951E+03
 1.545320772E+03	 3.069399902E+03
 1.545835066E+03	 3.082600098E+03
 1.546349305E+03	 3.106000000E+03
 1.546863489E+03	 3.082800049E+03
 1.547377620E+03	 3.105199951E+03
 1.547891696E+03	 3.074399902E+03
 1.548405717E+03	 3.093000000E+03
 1.548919684E+03	 3.090399902E+03
 1.549433597E+03	 3.083399902E+03
 1.549947455E+03	 3.117800049E+03
 1.550461259E+03	 3.065399902E+03
 1.550975009E+03	 3.077000000E+03
 1.551488704E+03	 3.050000000E+03
 1.552002345E+03	 3.113399902E+03
 1.552515931E+03	 3.095199951E+03
 1.553029463E+03	 3.035800049E+03
 1.553542941E+03	 3.096600098E+03
 1.554056364E+03	 3.082800049E+03
 1.554569733E+03	 3.085000000E+03
 1.555083048E+03	 3.065000000E+03
 1.555596308E+03	 3.087800049E+03
 1.556109514E+03	 3.116800049E+03
 1.556622665E+03	 3.085000000E+03
 1.557135762E+03	 3.090399902E+03
 1.557648805E+03	 3.104199951E+03
 1.558161794E+03	 3.094800049E+03
 1.558674728E+03	 3.101600098E+03
 1.559187608E+03	 3.073800049E+03
 1.559700433E+03	 3.080000000E+03
 1.560213205E+03	 3.079199951E+03
 1.560725921E+03	 3.060399902E+03
 1.561238584E+03	 3.082199951E+03
 1.561751192E+03	 3.075199951E+03
 1.562263746E+03	 3.099000000E+03
 1.562776246E+03	 3.078199951E+03
 1.563288691E+03	 3.097000000E+03
 1.563801082E+03	 3.100000000E+03
 1.564313419E+03	 3.099199951E+03
 1.564825701E+03	 3.090800049E+03
 1.565337929E+03	 3.052199951E+03
 1.565850103E+03	 3.119399902E+03
 1.566362223E+03	 3.056199951E+03
 1.566874288E+03	 3.070600098E+03
 1.567386299E+03	 3.066600098E+03
 1.567898256E+03	 3.087000000E+03
 1.568410158E+03	 3.063199951E+03
 1.568922007E+03	 3.073000000E+03
 1.569433800E+03	 3.079800049E+03
 1.569945540E+03	 3.089800049E+03
 1.570457226E+03	 3.077800049E+03
 1.570968857E+03	 3.068600098E+03
 1.571480434E+03	 3.082399902E+03
 1.571991956E+03	 3.066199951E+03
 1.572503425E+03	 3.083199951E+03
 1.573014839E+03	 3.081199951E+03
 1.573526199E+03	 3.091199951E+03
 1.574037505E+03	 3.077600098E+03
 1.574548756E+03	 3.057399902E+03
 1.575059953E+03	 3.098800049E+03
 1.575571096E+03	 3.057000000E+03
 1.576082185E+03	 3.103199951E+03
 1.576593220E+03	 3.071199951E+03
 1.577104200E+03	 3.081399902E+03
 1.577615126E+03	 3.048199951E+03
 1.578125998E+03	 3.087199951E+03
 1.578636816E+03	 3.088399902E+03
 1.579147580E+03	 3.069800049E+03
 1.579658289E+03	 3.067399902E+03
 1.580168944E+03	 3.060000000E+03
 1.580679545E+03	 3.107800049E+03
 1.581190092E+03	 3.050600098E+03
 1.581700585E+03	 3.063000000E+03
 1.582211023E+03	 3.035600098E+03
 1.582721407E+03	 3.060199951E+03
 1.583231737E+03	 3.034800049E+03
 1.583742013E+03	 3.069399902E+03
 1.584252235E+03	 3.052000000E+03
 1.584762403E+03	 3.077600098E+03
 1.585272516E+03	 3.034399902E+03
 1.585782575E+03	 3.033800049E+03
 1.586292581E+03	 3.070399902E+03
 1.586802532E+03	 3.076399902E+03
 1.587312428E+03	 3.073800049E+03
 1.587822271E+03	 3.052199951E+03
 1.588332060E+03	 3.085399902E+03
 1.588841794E+03	 3.047199951E+03
 1.589351474E+03	 3.050399902E+03
 1.589861100E+03	 3.044399902E+03
 1.590370672E+03	 3.026000000E+03
 1.590880190E+03	 3.071800049E+03
 1.591389654E+03	 3.080399902E+03
 1.591899064E+03	 3.054800049E+03
 1.592408419E+03	 3.040000000E+03
