1042.452273	1362.0
1043.018714	1381.400024
1043.585098	1365.0
1044.151424	1376.400024
1044.717692	1353.400024
1045.283903	1378.400024
1045.850056	1375.0
1046.416151	1369.599976
1046.982188	1361.0
1047.548167	1370.199951
1048.114089	1369.0
1048.679953	1364.400024
1049.24576	1353.199951
1049.811509	1366.400024
1050.3772	1353.199951
1050.942833	1359.199951
1051.508408	1361.400024
1052.073926	1360.599976
1052.639387	1353.0
1053.204789	1360.800049
1053.770134	1369.800049
1054.335421	1356.599976
1054.900651	1360.599976
1055.465823	1354.199951
1056.030937	1362.800049
1056.595993	1345.0
1057.160992	1355.199951
1057.725934	1361.199951
1058.290817	1346.400024
1058.855643	1354.199951
1059.420411	1346.800049
1059.985122	1349.599976
1060.549775	1347.0
1061.114371	1336.0
1061.678908	1339.599976
1062.243389	1352.599976
1062.807811	1347.800049
1063.372176	1343.599976
1063.936483	1346.400024
1064.500733	1350.800049
1065.064925	1347.599976
1065.62906	1344.599976
1066.193137	1337.400024
1066.757156	1339.599976
1067.321118	1341.400024
1067.885022	1339.400024
1068.448869	1331.800049
1069.012658	1327.0
1069.57639	1346.199951
1070.140063	1354.599976
1070.70368	1346.800049
1071.267239	1339.0
1071.83074	1327.0
1072.394184	1346.0
1072.95757	1328.400024
1073.520899	1335.400024
1074.08417	1352.199951
1074.647383	1330.0
1075.21054	1335.800049
1075.773638	1328.400024
1076.336679	1339.0
1076.899663	1329.400024
1077.462589	1339.199951
1078.025457	1331.599976
1078.588268	1327.400024
1079.151022	1327.0
1079.713718	1319.400024
1080.276356	1330.800049
1080.838937	1330.599976
1081.401461	1328.400024
1081.963927	1320.800049
1082.526336	1323.599976
1083.088687	1319.199951
1083.650981	1321.800049
1084.213217	1326.199951
1084.775396	1315.400024
1085.337517	1325.400024
1085.899581	1323.400024
1086.461587	1316.0
1087.023536	1315.800049
1087.585428	1319.800049
1088.147262	1322.599976
1088.709039	1308.800049
1089.270758	1307.800049
1089.83242	1320.400024
1090.394024	1310.199951
1090.955571	1312.400024
1091.517061	1303.400024
1092.078493	1305.400024
1092.639868	1306.800049
1093.201185	1303.199951
1093.762445	1305.400024
1094.323648	1300.400024
1094.884793	1310.199951
1095.445881	1296.800049
1096.006911	1297.800049
1096.567884	1310.199951
1097.1288	1301.199951
1097.689659	1318.0
1098.25046	1305.0
1098.811203	1295.199951
1099.37189	1305.400024
1099.932518	1310.199951
1100.49309	1285.400024
1101.053604	1288.599976
1101.614061	1291.0
1102.174461	1301.0
1102.734803	1295.599976
1103.295088	1301.800049
1103.855316	1286.0
1104.415486	1307.199951
1104.975599	1292.0
1105.535655	1298.400024
1106.095653	1288.599976
1106.655594	1295.0
1107.215478	1273.199951
1107.775305	1285.199951
1108.335074	1279.599976
1108.894786	1286.800049
1109.45444	1268.800049
1110.014038	1289.599976
1110.573578	1276.599976
1111.133061	1281.599976
1111.692486	1294.599976
1112.251854	1293.800049
1113.370419	1288.199951
1113.929616	1272.0
1114.488755	1286.400024
1115.047837	1284.0
1115.606862	1291.0
1116.16583	1280.800049
1116.72474	1273.599976
1117.283593	1289.400024
1117.842389	1280.199951
1118.401128	1278.800049
1118.959809	1283.400024
1119.518433	1282.599976
1120.077	1283.599976
1120.63551	1282.400024
1121.193963	1273.0
1121.752358	1290.199951
1122.310697	1269.400024
1122.868978	1275.400024
1123.427202	1268.400024
1123.985368	1276.0
1124.543478	1260.0
1125.10153	1272.0
1125.659526	1283.0
1126.217464	1267.599976
1126.775345	1272.599976
1127.333168	1259.0
1127.890935	1265.800049
1128.448644	1279.199951
1129.006297	1273.199951
1129.563892	1269.199951
1130.12143	1263.800049
1130.678911	1253.400024
1131.236335	1275.400024
1131.793701	1263.800049
1132.351011	1262.599976
1132.908263	1265.800049
1133.465458	1265.599976
1134.022597	1272.599976
1134.579678	1267.400024
1135.136702	1280.199951
1135.693669	1267.599976
1136.250578	1273.599976
1136.807431	1264.199951
1137.364227	1287.599976
1137.920965	1274.0
1138.477647	1256.199951
1139.034271	1269.400024
1139.590839	1257.599976
1140.147349	1261.800049
1140.703802	1266.400024
1141.260198	1248.800049
1141.816537	1253.599976
1142.37282	1268.400024
1142.929045	1258.400024
1143.485213	1263.599976
1144.041323	1271.199951
1144.597377	1271.400024
1145.153374	1257.800049
1145.709314	1257.199951
1146.265197	1269.800049
1146.821023	1274.199951
1147.376792	1284.400024
1147.932503	1250.800049
1148.488158	1267.0
1149.043756	1262.199951
1149.599297	1263.0
1150.154781	1266.800049
1150.710207	1290.199951
1151.265577	1300.199951
1151.82089	1287.599976
1152.376146	1253.400024
1152.931345	1256.400024
1153.486487	1256.0
1154.041572	1261.400024
1154.5966	1241.0
1155.151571	1259.0
1155.706485	1253.199951
1156.261342	1260.199951
1156.816142	1257.199951
1157.370885	1250.800049
1157.925572	1257.599976
1158.480201	1259.199951
1159.034774	1263.599976
1159.589289	1260.0
1160.143748	1247.0
1160.698149	1251.599976
1161.252494	1251.199951
1161.806782	1261.199951
1162.361013	1260.599976
1162.915187	1264.400024
1163.469304	1248.400024
1164.023364	1249.599976
1164.577368	1249.400024
1165.685204	1254.199951
1166.239036	1249.199951
1166.792812	1252.199951
1167.346531	1258.0
1167.900193	1241.800049
1168.453798	1246.599976
1169.007347	1257.400024
1169.560838	1248.199951
1170.114273	1242.800049
1170.66765	1246.0
1171.220971	1258.199951
1171.774235	1248.400024
1172.327443	1242.0
1172.880593	1248.199951
1173.433687	1253.599976
1173.986723	1242.199951
1174.539703	1249.800049
1175.092626	1246.800049
1175.645493	1237.199951
1176.198302	1234.800049
1176.751055	1245.400024
1177.303751	1248.0
1177.85639	1256.400024
1178.408972	1245.599976
1178.961498	1244.599976
1179.513966	1261.0
1180.066378	1233.599976
1180.618733	1246.0
1181.171032	1241.800049
1181.723273	1246.800049
1182.275458	1243.800049
1182.827586	1236.800049
1183.379657	1240.400024
1183.931672	1228.0
1184.48363	1236.400024
1185.035531	1232.199951
1185.587375	1229.599976
1186.139162	1238.800049
1186.690893	1225.199951
1187.242567	1247.400024
1187.794184	1233.199951
1188.345745	1242.0
1188.897249	1239.800049
1189.448696	1237.400024
1190.000086	1239.0
1190.55142	1220.800049
1191.102697	1227.0
1191.653918	1212.800049
1192.205081	1225.800049
1192.756188	1237.800049
1193.307238	1254.400024
1193.858232	1230.800049
1194.409169	1238.0
1194.960049	1230.0
1195.510872	1226.400024
1196.061639	1234.400024
1196.612349	1239.800049
1197.163003	1229.400024
1197.713599	1223.800049
1198.264139	1227.800049
1198.814623	1228.400024
1199.36505	1223.800049
1199.91542	1227.0
1200.465734	1215.0
1201.01599	1216.199951
1201.566191	1237.400024
1202.116334	1221.199951
1202.666421	1225.400024
1203.216452	1227.400024
1203.766425	1237.800049
1204.316343	1224.199951
1204.866203	1218.800049
1205.416007	1229.0
1205.965754	1225.400024
1206.515445	1222.599976
1207.065079	1220.0
1207.614657	1224.800049
1208.164177	1208.599976
1208.713642	1221.400024
1209.26305	1224.199951
1209.812401	1216.0
1210.361695	1235.199951
1210.910933	1224.400024
1211.460115	1218.599976
1212.00924	1224.400024
1212.558308	1226.599976
1213.10732	1226.599976
1213.656275	1212.199951
1214.205174	1215.800049
1214.754016	1219.400024
1215.302801	1214.199951
1215.85153	1213.599976
1216.400203	1217.199951
1216.948819	1207.0
1217.497378	1227.400024
1218.045881	1222.0
1218.594327	1206.0
1219.142717	1222.599976
1219.691051	1218.199951
1220.239327	1202.199951
1220.787548	1201.599976
1221.335712	1210.800049
1221.883819	1214.0
1222.43187	1221.800049
1222.979864	1212.599976
1223.527802	1219.400024
1224.075683	1210.199951
1224.623508	1209.599976
1225.171277	1217.599976
1225.718989	1209.599976
1226.266644	1196.400024
1226.814243	1207.199951
1227.361786	1202.199951
1227.909272	1209.400024
1228.456702	1216.0
1229.004075	1217.599976
1229.551392	1207.800049
1230.098652	1209.800049
1230.645856	1201.199951
1231.193003	1196.199951
1231.740094	1206.400024
1232.287129	1204.599976
1232.834107	1201.800049
1233.381029	1197.599976
1233.927894	1201.400024
1234.474703	1205.199951
1235.021455	1213.400024
1235.568151	1200.400024
1236.114791	1195.199951
1236.661374	1205.0
1237.207901	1200.599976
1237.754372	1205.199951
1238.300786	1214.599976
1238.847144	1209.199951
1239.393445	1208.800049
1239.93969	1204.599976
1240.485879	1205.599976
1241.032011	1193.599976
1241.578087	1205.800049
1242.124106	1196.400024
1242.67007	1204.599976
1243.215976	1201.0
1243.761827	1213.800049
1244.307621	1189.599976
1244.853359	1202.599976
1245.39904	1201.199951
1245.944665	1201.599976
1246.490234	1192.599976
1247.035746	1198.599976
1247.581203	1198.0
1248.126602	1194.400024
1248.671946	1195.0
1249.217233	1186.400024
1249.762464	1209.199951
1250.307638	1201.800049
1250.852757	1201.0
1251.397819	1181.0
1251.942824	1199.199951
1252.487774	1199.400024
1253.032667	1197.400024
1253.577503	1195.0
1254.122284	1197.599976
1254.667008	1183.800049
1255.211676	1185.199951
1255.756288	1185.800049
1256.300843	1178.0
1256.845342	1193.800049
1257.389785	1184.800049
1257.934172	1184.400024
1258.478502	1181.400024
1259.022776	1185.599976
1259.566994	1185.400024
1260.111156	1186.199951
1260.655261	1186.400024
1261.199311	1192.199951
1261.743304	1178.599976
1262.28724	1188.199951
1262.831121	1191.599976
1263.374945	1184.599976
1263.918713	1200.400024
1264.462425	1186.199951
1265.006081	1192.199951
1265.54968	1205.599976
1266.093223	1195.400024
1266.636711	1196.199951
1267.180141	1186.0
1267.723516	1187.400024
1268.266835	1190.599976
1268.810097	1189.599976
1269.353303	1169.199951
1269.896453	1183.599976
1270.439547	1176.599976
1270.982584	1182.199951
1271.525566	1178.199951
1272.068491	1188.400024
1272.61136	1179.400024
1273.154173	1192.0
1273.69693	1173.599976
1274.239631	1178.199951
1274.782275	1180.800049
1275.324864	1191.599976
1275.867396	1169.0
1276.409872	1183.0
1276.952292	1173.400024
1277.494656	1182.800049
1278.036964	1187.599976
1278.579215	1184.599976
1279.121411	1176.400024
1279.66355	1185.199951
1280.205634	1186.800049
1280.747661	1176.199951
1281.289632	1172.599976
1281.831547	1171.800049
1282.373406	1174.199951
1282.915209	1184.400024
1283.456955	1175.800049
1283.998646	1169.199951
1284.540281	1186.599976
1285.081859	1207.400024
1286.706258	1297.199951
1288.330153	1392.199951
1288.871339	1555.0
1289.953543	1181.800049
1290.494561	1174.0
1291.035523	1176.0
1291.576428	1163.0
1292.117278	1170.599976
1292.658072	1165.599976
1293.19881	1174.0
1293.739492	1169.599976
1294.280118	1161.0
1294.820687	1167.800049
1295.361201	1178.0
1295.901659	1176.0
1296.442061	1174.400024
1296.982406	1163.199951
1297.522696	1163.599976
1298.06293	1177.400024
1298.603108	1160.599976
1299.143229	1168.800049
1299.683295	1165.400024
1300.223305	1163.400024
1300.763259	1162.800049
1301.303157	1166.199951
1301.842999	1169.0
1302.382785	1166.400024
1302.922515	1169.800049
1303.462189	1178.800049
1304.001807	1153.0
1304.541369	1174.400024
1305.080875	1163.199951
1305.620326	1171.599976
1306.15972	1163.199951
1306.699058	1161.199951
1307.238341	1160.0
1307.777567	1162.199951
1308.316738	1148.199951
1308.855853	1165.0
1309.394912	1151.0
1309.933915	1162.800049
1310.472862	1157.400024
1311.011753	1149.800049
1311.550588	1151.400024
1312.089367	1146.0
1312.62809	1147.800049
1313.166758	1162.0
1313.70537	1153.599976
1314.243925	1151.0
1314.782425	1156.400024
1315.320869	1153.0
1315.859257	1158.599976
1316.397589	1151.400024
1316.935866	1150.199951
1317.474086	1152.800049
1318.012251	1146.199951
1318.55036	1153.0
1319.088413	1157.199951
1319.62641	1162.599976
1320.164351	1162.0
1320.702236	1149.400024
1321.240066	1151.199951
1321.777839	1158.800049
1322.315557	1143.800049
1322.853219	1149.400024
1323.390826	1146.800049
1323.928376	1152.199951
1324.465871	1159.800049
1325.003309	1146.800049
1325.540692	1141.400024
1326.07802	1154.400024
1326.615291	1146.400024
1327.152506	1147.199951
1327.689666	1144.599976
1328.22677	1141.199951
1328.763818	1135.199951
1329.300811	1154.800049
1329.837747	1151.800049
1330.374628	1154.599976
1330.911453	1163.199951
1331.448222	1152.800049
1331.984936	1152.400024
1332.521594	1145.800049
1333.058196	1157.199951
1333.594742	1146.800049
1334.131232	1139.599976
1334.667667	1157.199951
1335.204046	1162.800049
1335.740369	1145.599976
1336.276637	1152.0
1336.812848	1152.599976
1337.349004	1154.599976
1337.885105	1141.599976
1338.421149	1143.199951
1338.957138	1135.599976
1339.493071	1158.599976
1340.028949	1137.199951
1340.56477	1140.599976
1341.100536	1138.400024
1341.636246	1141.800049
1342.171901	1140.599976
1342.7075	1145.599976
1343.243043	1144.599976
1343.77853	1137.599976
1344.313962	1137.0
1344.849338	1140.400024
1345.384659	1149.199951
1345.919923	1145.800049
1346.455133	1136.199951
1346.990286	1131.199951
1347.525384	1141.199951
1348.060426	1131.199951
1348.595412	1143.599976
1349.130343	1135.0
1349.665218	1142.599976
1350.200037	1139.0
1350.734801	1145.400024
1351.269509	1139.199951
1351.804162	1132.0
1352.338758	1138.800049
1352.8733	1136.800049
1353.407785	1138.0
1353.942215	1134.400024
1354.476589	1137.199951
1355.010908	1124.800049
1355.545171	1131.199951
1356.079379	1138.599976
1356.61353	1139.199951
1357.147627	1137.599976
1357.681667	1135.0
1358.215652	1133.400024
1358.749582	1135.599976
1359.283456	1129.199951
1359.817274	1129.800049
1360.351037	1133.400024
1360.884744	1126.599976
1361.418395	1127.599976
1361.951991	1131.199951
1362.485531	1127.400024
1363.019016	1135.199951
1363.552445	1134.800049
1364.085819	1124.400024
1364.619137	1125.0
1365.1524	1129.400024
1365.685607	1139.199951
1366.218758	1135.800049
1366.751854	1141.0
1367.284894	1128.599976
1367.817879	1128.0
1368.350808	1121.199951
1368.883682	1129.0
1369.4165	1126.0
1369.949263	1134.800049
1370.48197	1126.400024
1371.014622	1137.199951
1371.547218	1131.199951
1372.079758	1131.199951
1372.612244	1132.400024
1373.144673	1123.0
1373.677047	1128.199951
1374.209366	1136.0
1374.741629	1130.0
1375.273836	1128.800049
1375.805989	1127.800049
1376.338085	1132.199951
1376.870126	1127.400024
1377.402112	1113.0
1377.934042	1128.800049
1378.465917	1130.400024
1378.997736	1117.0
1379.5295	1122.599976
1380.061208	1124.0
1380.592861	1124.599976
1381.124459	1119.599976
1381.656	1115.199951
1382.187487	1129.400024
1382.718918	1116.199951
1383.250294	1127.0
1383.781614	1129.599976
1384.312879	1130.0
1384.844088	1124.400024
1385.375242	1120.800049
1385.90634	1123.0
1386.437383	1120.800049
1386.968371	1123.800049
1387.499303	1119.400024
1388.03018	1163.400024
1388.561001	1228.800049
1389.091767	1633.0
1389.622478	1452.800049
1390.153133	1166.0
1390.683733	1124.800049
1391.214277	1118.800049
1391.744766	1112.599976
1392.2752	1119.400024
1392.805578	1125.599976
1393.335901	1103.599976
1393.866168	1125.599976
1394.396381	1113.800049
1394.926537	1117.0
1395.456639	1121.400024
1395.986685	1118.599976
1396.516675	1127.0
1397.046611	1122.599976
1397.576491	1112.400024
1398.106315	1122.0
1398.636084	1123.199951
1399.165798	1113.0
1399.695457	1125.400024
1400.22506	1118.0
1400.754608	1110.0
1401.284101	1106.599976
1401.813538	1110.0
1402.34292	1116.400024
1402.872247	1103.0
1403.401518	1117.0
1403.930734	1102.599976
1404.459895	1119.400024
1404.989	1113.0
1405.51805	1110.800049
1406.047045	1112.0
1406.575984	1113.199951
1407.104869	1115.199951
1407.633697	1111.400024
1408.162471	1117.599976
1408.691189	1115.199951
1409.219852	1125.800049
1409.74846	1121.199951
1410.277013	1158.800049
1410.80551	1156.0
1411.333952	1129.199951
1411.862339	1108.199951
1412.39067	1120.199951
1412.918946	1105.199951
1413.447167	1099.0
1413.975333	1108.599976
1414.503444	1118.400024
1415.031499	1113.199951
1415.559499	1114.400024
1416.087444	1102.400024
1416.615333	1108.0
1417.143167	1100.400024
1417.670947	1097.800049
1418.19867	1109.800049
1418.726339	1104.800049
1419.253952	1102.0
1419.781511	1111.0
1420.309014	1120.400024
1420.836461	1107.800049
1421.363854	1108.400024
1421.891191	1119.599976
1422.418474	1107.0
1422.945701	1110.400024
1423.472872	1107.400024
1423.999989	1109.599976
1424.52705	1108.400024
1425.054057	1102.199951
1425.581008	1105.599976
1426.107904	1106.199951
1426.634745	1114.0
1427.16153	1116.0
1427.688261	1107.400024
1428.214936	1114.599976
1428.741556	1103.400024
1429.268121	1112.199951
1429.794631	1104.800049
1430.321085	1110.400024
1430.847485	1098.0
1431.373829	1097.800049
1431.900118	1113.800049
1432.426353	1102.800049
1432.952532	1091.199951
1433.478655	1098.599976
1434.004724	1112.400024
1434.530738	1105.400024
1435.056696	1103.400024
1435.5826	1107.199951
1436.108448	1096.400024
1436.634241	1110.400024
1437.159979	1101.599976
1437.685662	1098.800049
1438.21129	1103.599976
1438.736863	1106.199951
1439.262381	1101.199951
1439.787843	1111.0
1440.313251	1096.599976
1440.838603	1099.199951
1441.3639	1098.0
1441.889143	1096.199951
1442.41433	1102.199951
1442.939462	1099.0
1443.464539	1107.0
1443.989561	1090.599976
1444.514528	1100.199951
1445.03944	1094.400024
1445.564297	1099.800049
1446.089099	1101.199951
1446.613846	1091.800049
1447.138537	1095.599976
1447.663174	1105.599976
1448.187756	1092.800049
1448.712282	1103.400024
1449.236754	1098.599976
1449.761171	1088.599976
1450.285532	1088.400024
1450.809839	1092.800049
1451.33409	1095.400024
1451.858287	1094.800049
1452.382428	1093.199951
1452.906515	1102.0
1453.430546	1095.599976
1453.954523	1087.0
1454.478444	1103.599976
1455.002311	1083.400024
1455.526123	1092.800049
1456.049879	1089.599976
1456.573581	1097.599976
1457.097227	1087.800049
1457.620819	1096.800049
1458.144356	1084.800049
1458.667837	1099.199951
1459.191264	1083.800049
1459.714636	1083.0
1460.237952	1091.800049
1460.761214	1081.0
1461.284421	1083.199951
1461.807573	1092.400024
1462.33067	1081.800049
1462.853712	1087.0
1463.376699	1092.800049
1463.899632	1084.800049
1464.422509	1096.0
1464.945331	1095.599976
1465.468099	1085.800049
1465.990811	1089.199951
1466.513469	1085.599976
1467.036071	1082.199951
1467.558619	1089.599976
1468.081112	1084.199951
1468.60355	1090.800049
1469.125933	1079.599976
1469.648261	1082.0
1470.170534	1087.0
1470.692752	1098.0
1471.214916	1081.0
1471.737024	1076.800049
1472.259078	1082.599976
1472.781077	1090.599976
1473.303021	1083.400024
1473.82491	1087.400024
1474.346744	1080.400024
1474.868523	1082.599976
1475.390248	1075.199951
1475.911917	1080.199951
1476.433532	1080.199951
1476.955092	1080.599976
1477.476597	1088.199951
1477.998047	1087.800049
1478.519442	1090.599976
1479.040783	1072.599976
1479.562068	1080.400024
1480.083299	1076.0
1480.604475	1092.0
1481.125596	1075.400024
1481.646663	1075.599976
1482.167674	1074.0
1482.688631	1060.199951
1483.209533	1078.800049
1483.73038	1075.199951
1484.251172	1081.800049
1484.771909	1081.599976
1485.292592	1080.199951
1485.81322	1074.400024
1486.333793	1084.199951
1486.854311	1076.599976
1487.374775	1078.0
1487.895183	1076.400024
1488.415537	1069.199951
1488.935836	1076.400024
1489.456081	1077.800049
1489.97627	1075.800049
1490.496405	1082.0
1491.016485	1076.0
1491.536511	1069.400024
1492.056481	1074.400024
1492.576397	1074.800049
1493.096258	1084.400024
1493.616064	1066.599976
1494.135816	1068.199951
1494.655513	1077.599976
1495.175155	1074.800049
1495.694742	1077.0
1496.214274	1069.199951
1496.733752	1072.0
1497.253175	1075.800049
1497.772544	1085.199951
1498.291858	1066.0
1498.811116	1066.400024
1499.330321	1076.0
1499.84947	1079.800049
1500.368565	1075.0
1500.887605	1071.199951
1501.406591	1070.0
1501.925521	1068.0
1502.444397	1061.800049
1502.963219	1065.199951
1503.481985	1075.599976
1504.000697	1069.800049
1504.519355	1073.199951
1505.037957	1057.800049
1505.556505	1066.599976
1506.074999	1079.400024
1506.593437	1061.599976
1507.111821	1069.0
1507.63015	1065.199951
1508.148425	1063.599976
1508.666645	1062.400024
1509.18481	1072.800049
1509.702921	1071.599976
1510.220977	1056.800049
1510.738979	1074.199951
1511.256925	1065.0
1511.774817	1069.199951
1512.292655	1069.0
1512.810438	1060.199951
1513.328166	1067.400024
1513.84584	1061.199951
1514.363459	1066.800049
1514.881023	1071.199951
1515.398533	1069.0
1515.915988	1076.599976
1516.433389	1064.400024
1516.950734	1068.199951
1517.468026	1067.199951
1517.985263	1063.599976
1518.502445	1060.599976
1519.019572	1065.599976
1519.536645	1068.199951
1520.053664	1055.199951
1520.570628	1074.199951
1521.087537	1060.800049
1521.604392	1074.599976
1522.121192	1060.400024
1522.637937	1066.800049
1523.154628	1063.199951
1523.671265	1048.199951
1524.187847	1057.800049
1524.704374	1063.800049
1525.220847	1054.599976
1525.737265	1058.800049
1526.253629	1060.0
1526.769938	1049.0
1527.286192	1073.0
1527.802392	1064.199951
1528.318538	1060.199951
1528.834629	1067.0
1529.350666	1065.199951
1529.866648	1055.0
1530.382575	1073.0
1530.898448	1066.199951
1531.414266	1053.0
1531.93003	1064.400024
1532.44574	1057.800049
1532.961395	1059.800049
1533.476995	1060.199951
1533.992541	1058.199951
1534.508033	1050.400024
1535.02347	1064.599976
1535.538852	1052.0
1536.05418	1053.0
1536.569454	1060.199951
1537.084673	1052.0
1537.599837	1058.599976
1538.114947	1058.199951
1538.630003	1069.0
1539.145004	1048.800049
1539.659951	1060.199951
1540.174843	1048.599976
1540.689681	1044.800049
1541.204465	1060.0
1541.719194	1058.599976
1542.233868	1055.0
1542.748488	1051.400024
1543.263054	1068.199951
1543.777565	1054.599976
1544.292022	1055.599976
1544.806424	1057.0
1545.320772	1051.599976
1545.835066	1056.400024
1546.349305	1051.400024
1546.863489	1054.199951
1547.37762	1060.0
1547.891696	1057.0
1548.405717	1042.0
1548.919684	1053.599976
1549.433597	1066.400024
1549.947455	1056.599976
1550.461259	1058.800049
1550.975009	1057.800049
1551.488704	1054.199951
1552.002345	1056.199951
1552.515931	1057.800049
1553.029463	1050.0
1553.542941	1062.199951
1554.056364	1048.0
1554.569733	1058.0
1555.083048	1040.800049
1555.596308	1054.199951
1556.109514	1047.599976
1556.622665	1055.800049
1557.135762	1049.199951
1557.648805	1047.599976
1558.161794	1043.199951
1558.674728	1051.199951
1559.187608	1052.199951
1559.700433	1052.400024
1560.213205	1058.199951
1560.725921	1059.800049
1561.238584	1066.199951
1561.751192	1051.800049
1562.263746	1062.599976
1562.776246	1052.199951
1563.288691	1059.0
1563.801082	1061.0
1564.313419	1044.800049
1564.825701	1037.599976
1565.337929	1046.0
1565.850103	1053.0
1566.362223	1038.800049
1566.874288	1049.800049
1567.386299	1068.400024
1567.898256	1045.400024
1568.410158	1057.599976
1568.922007	1052.0
1569.4338	1042.800049
1569.94554	1047.599976
1570.457226	1046.0
1570.968857	1049.599976
1571.480434	1049.800049
1571.991956	1047.0
1572.503425	1065.400024
1573.014839	1053.199951
1573.526199	1050.800049
1574.037505	1057.800049
1574.548756	1050.800049
1575.059953	1049.800049
1575.571096	1042.800049
1576.082185	1034.599976
1576.59322	1040.400024
1577.1042	1053.800049
1577.615126	1047.400024
1578.125998	1042.0
1578.636816	1044.800049
1579.14758	1049.199951
1579.658289	1047.400024
1580.168944	1037.0
1580.679545	1048.599976
1581.190092	1046.599976
1581.700585	1052.199951
1582.211023	1042.199951
1582.721407	1038.800049
1583.231737	1048.400024
1583.742013	1050.400024
1584.252235	1045.800049
1584.762403	1041.599976
1585.272516	1047.400024
1585.782575	1054.599976
1586.292581	1055.800049
1586.802532	1050.199951
1587.312428	1047.800049
1587.822271	1043.199951
1588.841794	1037.400024
1589.351474	1040.800049
1589.8611	1041.400024
1590.370672	1045.199951
1590.88019	1050.0
1591.389654	1045.599976
1591.899064	1039.199951
1592.408419	1041.0
