1042.452273	689.5999756
1043.018714	686.5999756
1043.585098	684.5999756
1044.151424	683.5999756
1044.717692	686.4000244
1045.283903	678.0
1045.850056	685.5999756
1046.416151	676.0
1046.982188	680.2000122
1047.548167	678.5999756
1048.114089	678.4000244
1048.679953	679.2000122
1049.24576	678.7999878
1049.811509	674.7999878
1050.3772	677.2000122
1050.942833	674.4000244
1051.508408	676.7999878
1052.073926	675.0
1052.639387	673.4000244
1053.204789	676.7999878
1053.770134	671.0
1054.335421	671.7999878
1054.900651	677.2000122
1055.465823	672.4000244
1056.030937	672.7999878
1056.595993	674.5999756
1057.160992	669.2000122
1057.725934	670.5999756
1058.290817	670.2000122
1058.855643	676.4000244
1059.420411	671.2000122
1059.985122	670.0
1060.549775	672.7999878
1061.114371	672.5999756
1061.678908	671.5999756
1062.243389	674.0
1062.807811	674.5999756
1063.372176	672.2000122
1063.936483	671.4000244
1064.500733	672.4000244
1065.064925	675.2000122
1065.62906	672.7999878
1066.193137	669.4000244
1066.757156	671.5999756
1067.321118	667.5999756
1067.885022	667.5999756
1068.448869	669.5999756
1069.012658	669.5999756
1069.57639	670.0
1070.140063	676.7999878
1070.70368	670.7999878
1071.267239	672.4000244
1071.83074	668.4000244
1072.394184	674.2000122
1072.95757	670.5999756
1073.520899	670.4000244
1074.08417	666.4000244
1074.647383	670.5999756
1075.21054	665.5999756
1075.773638	669.7999878
1076.336679	667.5999756
1076.899663	669.0
1077.462589	670.7999878
1078.025457	668.7999878
1078.588268	670.7999878
1079.151022	668.5999756
1079.713718	668.2000122
1080.276356	667.5999756
1080.838937	668.5999756
1081.401461	669.2000122
1081.963927	668.2000122
1082.526336	670.0
1083.088687	664.7999878
1083.650981	669.4000244
1084.213217	667.5999756
1084.775396	670.5999756
1085.337517	667.7999878
1085.899581	670.4000244
1086.461587	668.4000244
1087.023536	669.0
1087.585428	669.0
1088.147262	672.0
1088.709039	667.5999756
1089.270758	671.4000244
1089.83242	670.2000122
1090.394024	667.7999878
1090.955571	669.0
1091.517061	673.7999878
1092.078493	668.7999878
1092.639868	666.0
1093.201185	669.0
1093.762445	669.7999878
1094.323648	670.5999756
1094.884793	670.4000244
1095.445881	669.0
1096.006911	667.7999878
1096.567884	666.7999878
1097.1288	674.2000122
1097.689659	668.2000122
1098.25046	665.7999878
1098.811203	668.7999878
1099.37189	669.4000244
1099.932518	666.5999756
1100.49309	670.2000122
1101.053604	672.0
1101.614061	666.2000122
1102.174461	669.2000122
1102.734803	669.7999878
1103.295088	667.7999878
1103.855316	669.2000122
1104.415486	669.0
1104.975599	667.4000244
1105.535655	670.0
1106.095653	670.0
1106.655594	665.7999878
1107.215478	663.7999878
1107.775305	669.4000244
1108.335074	666.7999878
1108.894786	667.5999756
1109.45444	667.5999756
1110.014038	670.7999878
1110.573578	671.2000122
1111.133061	666.7999878
1111.692486	669.0
1112.251854	669.7999878
1112.811165	669.2000122
1113.370419	663.2000122
1113.929616	667.5999756
1114.488755	667.2000122
1115.047837	666.5999756
1115.606862	665.0
1116.16583	669.7999878
1116.72474	664.4000244
1117.283593	669.5999756
1117.842389	666.7999878
1118.401128	670.5999756
1118.959809	666.0
1119.518433	667.5999756
1120.077	669.0
1120.63551	667.7999878
1121.193963	669.0
1121.752358	669.5999756
1122.310697	667.4000244
1122.868978	668.2000122
1123.427202	667.5999756
1123.985368	667.0
1124.543478	670.2000122
1125.10153	669.5999756
1125.659526	667.2000122
1126.217464	667.5999756
1126.775345	667.7999878
1127.333168	668.0
1127.890935	669.2000122
1128.448644	665.2000122
1129.006297	666.7999878
1129.563892	667.5999756
1130.12143	667.5999756
1130.678911	666.7999878
1131.236335	670.5999756
1131.793701	665.4000244
1132.351011	669.4000244
1132.908263	667.5999756
1133.465458	669.7999878
1134.022597	668.0
1134.579678	669.5999756
1135.136702	667.0
1135.693669	667.4000244
1136.250578	669.5999756
1136.807431	668.0
1137.364227	667.7999878
1137.920965	669.0
1138.477647	668.2000122
1139.034271	665.7999878
1139.590839	666.2000122
1140.147349	670.0
1140.703802	667.7999878
1141.260198	666.4000244
1141.816537	667.7999878
1142.37282	666.2000122
1142.929045	667.0
1143.485213	668.4000244
1144.041323	668.0
1144.597377	667.5999756
1145.153374	668.7999878
1145.709314	666.5999756
1146.265197	667.4000244
1146.821023	666.4000244
1147.376792	669.7999878
1147.932503	668.5999756
1148.488158	669.7999878
1149.043756	669.0
1149.599297	666.5999756
1150.154781	666.2000122
1150.710207	668.5999756
1151.265577	668.7999878
1151.82089	671.0
1152.376146	666.4000244
1152.931345	670.7999878
1153.486487	667.5999756
1154.041572	672.2000122
1154.5966	668.4000244
1155.151571	667.4000244
1155.706485	666.2000122
1156.261342	666.0
1156.816142	670.7999878
1157.370885	668.4000244
1157.925572	670.0
1158.480201	670.7999878
1159.034774	667.0
1159.589289	667.5999756
1160.143748	668.7999878
1160.698149	666.5999756
1161.252494	667.2000122
1161.806782	668.4000244
1162.361013	667.4000244
1162.915187	670.4000244
1163.469304	664.5999756
1164.023364	668.2000122
1164.577368	667.0
1165.131314	664.7999878
1165.685204	667.7999878
1166.239036	666.4000244
1166.792812	665.4000244
1167.346531	665.2000122
1167.900193	667.2000122
1168.453798	665.7999878
1169.007347	666.7999878
1169.560838	666.5999756
1170.114273	664.5999756
1170.66765	666.5999756
1171.220971	667.2000122
1171.774235	668.0
1172.327443	667.4000244
1172.880593	664.5999756
1173.433687	667.7999878
1173.986723	666.2000122
1174.539703	668.2000122
1175.092626	666.0
1175.645493	665.5999756
1176.198302	667.0
1176.751055	666.5999756
1177.303751	668.7999878
1177.85639	669.2000122
1178.408972	664.4000244
1178.961498	668.2000122
1179.513966	666.2000122
1180.066378	667.2000122
1180.618733	668.0
1181.171032	667.5999756
1181.723273	667.4000244
1182.275458	667.4000244
1182.827586	669.0
1183.379657	670.2000122
1183.931672	665.4000244
1184.48363	668.2000122
1185.035531	668.2000122
1185.587375	667.2000122
1186.139162	666.7999878
1186.690893	666.7999878
1187.242567	664.7999878
1187.794184	668.2000122
1188.345745	667.0
1188.897249	670.5999756
1189.448696	666.5999756
1190.000086	667.4000244
1190.55142	664.7999878
1191.102697	663.5999756
1191.653918	668.5999756
1192.205081	670.2000122
1192.756188	667.4000244
1193.858232	667.4000244
1194.409169	665.7999878
1194.960049	668.4000244
1195.510872	664.7999878
1196.061639	665.2000122
1196.612349	667.5999756
1197.163003	666.2000122
1197.713599	671.5999756
1198.264139	668.0
1198.814623	668.7999878
1199.36505	666.0
1199.91542	670.2000122
1200.465734	669.2000122
1201.01599	668.5999756
1201.566191	668.7999878
1202.116334	665.7999878
1202.666421	668.7999878
1203.216452	665.5999756
1203.766425	665.4000244
1204.316343	666.4000244
1204.866203	667.0
1205.416007	667.4000244
1205.965754	667.2000122
1206.515445	668.0
1207.065079	670.5999756
1207.614657	667.7999878
1208.164177	666.7999878
1208.713642	669.7999878
1209.26305	671.7999878
1209.812401	668.4000244
1210.361695	667.7999878
1210.910933	665.4000244
1211.460115	667.5999756
1212.00924	672.0
1212.558308	668.5999756
1213.10732	671.4000244
1213.656275	668.0
1214.205174	670.2000122
1214.754016	666.0
1215.302801	668.4000244
1215.85153	669.2000122
1216.400203	667.4000244
1216.948819	667.5999756
1217.497378	665.0
1218.045881	665.0
1218.594327	669.5999756
1219.142717	667.2000122
1219.691051	669.4000244
1220.239327	671.5999756
1220.787548	667.5999756
1221.335712	668.2000122
1221.883819	666.7999878
1222.43187	669.4000244
1222.979864	669.0
1223.527802	668.2000122
1224.075683	668.2000122
1224.623508	668.2000122
1225.171277	670.7999878
1225.718989	669.5999756
1226.266644	668.5999756
1226.814243	670.4000244
1227.361786	668.4000244
1227.909272	669.2000122
1228.456702	668.2000122
1229.004075	671.5999756
1229.551392	670.7999878
1230.098652	667.4000244
1230.645856	669.5999756
1231.193003	670.0
1231.740094	672.2000122
1232.287129	670.4000244
1232.834107	669.7999878
1233.381029	671.5999756
1233.927894	670.0
1234.474703	672.7999878
1235.021455	673.0
1235.568151	671.2000122
1236.114791	670.4000244
1236.661374	672.2000122
1237.207901	671.7999878
1237.754372	673.5999756
1238.300786	671.0
1238.847144	670.7999878
1239.393445	674.7999878
1239.93969	673.0
1240.485879	675.2000122
1241.032011	671.2000122
1241.578087	673.7999878
1242.124106	671.7999878
1242.67007	669.7999878
1243.215976	674.4000244
1243.761827	674.2000122
1244.307621	672.2000122
1244.853359	677.2000122
1245.39904	673.5999756
1245.944665	671.2000122
1246.490234	675.5999756
1247.035746	675.0
1247.581203	674.2000122
1248.126602	673.5999756
1248.671946	677.4000244
1249.217233	678.5999756
1249.762464	676.4000244
1250.307638	679.0
1250.852757	674.0
1251.397819	675.2000122
1251.942824	673.0
1252.487774	676.7999878
1253.032667	674.2000122
1253.577503	678.5999756
1254.122284	675.4000244
1254.667008	676.7999878
1255.211676	674.4000244
1255.756288	675.0
1256.300843	675.4000244
1256.845342	675.0
1257.389785	674.0
1257.934172	675.7999878
1258.478502	681.4000244
1259.022776	687.5999756
1259.566994	687.4000244
1260.111156	687.2000122
1260.655261	677.2000122
1261.199311	682.4000244
1261.743304	682.7999878
1262.28724	690.4000244
1262.831121	694.7999878
1263.374945	698.5999756
1263.918713	717.7999878
1264.462425	771.7999878
1265.006081	808.2000122
1265.54968	780.2000122
1266.093223	726.0
1266.636711	699.0
1267.180141	684.5999756
1267.723516	685.5999756
1268.266835	685.5999756
1268.810097	683.4000244
1269.353303	681.4000244
1269.896453	681.2000122
1270.439547	677.0
1270.982584	676.4000244
1271.525566	682.4000244
1272.068491	678.4000244
1272.61136	677.0
1273.154173	679.4000244
1273.69693	675.7999878
1274.239631	680.5999756
1274.782275	675.2000122
1275.324864	679.4000244
1275.867396	678.5999756
1276.409872	680.7999878
1276.952292	679.7999878
1277.494656	682.2000122
1278.036964	683.2000122
1278.579215	683.0
1279.121411	682.2000122
1279.66355	686.4000244
1280.205634	685.2000122
1280.747661	692.2000122
1281.289632	698.2000122
1281.831547	707.0
1282.373406	716.7999878
1282.915209	742.5999756
1283.456955	798.2000122
1283.998646	955.7999878
1284.540281	1489.0
1285.081859	2518.399902
1285.623381	2247.199951
1286.164848	1188.199951
1286.706258	843.2000122
1287.247612	755.4000244
1287.788911	720.0
1288.330153	705.0
1288.871339	697.7999878
1289.412469	695.5999756
1289.953543	689.7999878
1290.494561	689.4000244
1291.035523	685.2000122
1291.576428	685.2000122
1292.117278	683.2000122
1292.658072	685.0
1293.19881	682.2000122
1293.739492	682.0
1294.280118	679.7999878
1294.820687	680.5999756
1295.361201	680.5999756
1295.901659	678.4000244
1296.442061	677.0
1296.982406	676.2000122
1297.522696	678.0
1298.06293	680.7999878
1298.603108	675.0
1299.143229	676.0
1299.683295	677.7999878
1300.223305	680.4000244
1300.763259	679.4000244
1301.303157	677.0
1301.842999	681.0
1302.382785	676.4000244
1302.922515	681.4000244
1303.462189	676.7999878
1304.001807	676.2000122
1304.541369	674.4000244
1305.080875	677.0
1305.620326	677.2000122
1306.15972	675.0
1306.699058	675.2000122
1307.238341	678.2000122
1307.777567	675.0
1308.316738	673.4000244
1308.855853	678.4000244
1309.394912	676.7999878
1309.933915	677.5999756
1310.472862	674.0
1311.011753	676.2000122
1311.550588	678.5999756
1312.089367	678.2000122
1312.62809	676.5999756
1313.166758	675.0
1313.70537	677.5999756
1314.243925	673.0
1314.782425	674.7999878
1315.320869	672.0
1315.859257	674.0
1316.397589	678.0
1316.935866	676.7999878
1317.474086	675.7999878
1318.012251	672.5999756
1318.55036	675.4000244
1319.088413	674.7999878
1319.62641	675.4000244
1320.164351	675.5999756
1320.702236	672.5999756
1321.240066	674.4000244
1321.777839	671.4000244
1322.315557	675.2000122
1322.853219	677.0
1323.390826	672.2000122
1323.928376	678.4000244
1324.465871	673.7999878
1325.003309	672.2000122
1325.540692	674.5999756
1326.07802	674.4000244
1326.615291	674.2000122
1327.152506	674.2000122
1327.689666	674.0
1328.22677	672.5999756
1328.763818	673.4000244
1329.300811	674.2000122
1329.837747	672.0
1330.374628	674.4000244
1330.911453	677.0
1331.448222	674.4000244
1331.984936	676.5999756
1332.521594	671.7999878
1333.058196	675.7999878
1333.594742	674.7999878
1334.131232	673.0
1334.667667	674.5999756
1335.204046	674.7999878
1335.740369	672.4000244
1336.276637	672.0
1336.812848	676.0
1337.349004	673.0
1337.885105	675.4000244
1338.421149	674.5999756
1338.957138	676.0
1339.493071	672.5999756
1340.028949	675.7999878
1340.56477	673.2000122
1341.100536	672.7999878
1341.636246	676.4000244
1342.171901	674.5999756
1342.7075	675.5999756
1343.243043	675.0
1343.77853	674.7999878
1344.313962	672.4000244
1344.849338	675.5999756
1345.384659	673.7999878
1345.919923	674.7999878
1346.455133	675.5999756
1346.990286	675.7999878
1347.525384	676.7999878
1348.060426	674.2000122
1348.595412	675.2000122
1349.130343	676.0
1349.665218	674.5999756
1350.200037	672.0
1350.734801	677.4000244
1351.269509	674.4000244
1351.804162	674.0
1352.338758	675.2000122
1352.8733	672.2000122
1353.407785	678.0
1353.942215	674.7999878
1354.476589	675.0
1355.010908	675.2000122
1355.545171	677.4000244
1356.079379	677.4000244
1356.61353	680.7999878
1357.147627	677.4000244
1357.681667	680.7999878
1358.215652	677.0
1358.749582	676.4000244
1359.283456	674.4000244
1359.817274	676.5999756
1360.351037	676.0
1360.884744	675.2000122
1361.418395	676.0
1361.951991	676.7999878
1362.485531	676.5999756
1363.019016	674.2000122
1363.552445	678.2000122
1364.085819	678.0
1364.619137	675.5999756
1365.1524	677.2000122
1365.685607	686.2000122
1366.218758	688.4000244
1366.751854	684.5999756
1367.284894	680.2000122
1367.817879	678.4000244
1368.350808	682.2000122
1368.883682	677.7999878
1369.4165	682.4000244
1369.949263	717.0
1370.48197	732.7999878
1371.014622	697.2000122
1371.547218	680.5999756
1372.079758	679.0
1372.612244	676.7999878
1373.144673	674.0
1373.677047	680.0
1374.209366	677.5999756
1374.741629	678.2000122
1375.273836	679.7999878
1375.805989	678.2000122
1376.338085	683.7999878
1376.870126	683.2000122
1377.402112	679.2000122
1377.934042	682.4000244
1378.465917	683.4000244
1378.997736	683.2000122
1379.5295	683.5999756
1380.061208	684.4000244
1380.592861	685.5999756
1381.124459	681.7999878
1381.656	690.4000244
1382.187487	688.0
1382.718918	687.5999756
1383.250294	693.2000122
1383.781614	697.5999756
1384.312879	701.2000122
1384.844088	707.5999756
1385.375242	721.7999878
1385.90634	743.0
1386.437383	776.7999878
1386.968371	845.5999756
1387.499303	1078.0
1388.03018	2193.399902
1388.561001	4199.200195
1389.091767	2872.199951
1389.622478	1223.199951
1390.153133	856.2000122
1390.683733	772.0
1391.214277	734.0
1391.744766	709.5999756
1392.2752	707.7999878
1392.805578	699.5999756
1393.335901	694.5999756
1393.866168	695.0
1394.396381	687.2000122
1394.926537	685.4000244
1395.456639	686.0
1395.986685	683.0
1396.516675	684.4000244
1397.046611	684.7999878
1397.576491	685.4000244
1398.106315	681.5999756
1398.636084	683.0
1399.165798	681.4000244
1399.695457	683.4000244
1400.22506	679.2000122
1400.754608	683.0
1401.284101	681.5999756
1401.813538	677.7999878
1402.34292	680.7999878
1402.872247	683.2000122
1403.401518	682.4000244
1403.930734	678.4000244
1404.459895	678.0
1404.989	680.5999756
1405.51805	680.0
1406.047045	686.7999878
1406.575984	686.0
1407.104869	690.7999878
1407.633697	691.7999878
1408.162471	708.7999878
1408.691189	733.0
1409.219852	795.7999878
1409.74846	907.4000244
1410.277013	903.2000122
1410.80551	786.7999878
1411.333952	719.0
1411.862339	695.7999878
1412.39067	689.5999756
1412.918946	682.7999878
1413.447167	682.5999756
1413.975333	679.0
1414.503444	676.7999878
1415.031499	677.5999756
1415.559499	688.0
1416.087444	678.2000122
1416.615333	676.0
1417.143167	675.2000122
1417.670947	676.0
1418.19867	675.4000244
1418.726339	677.5999756
1419.253952	675.7999878
1419.781511	674.7999878
1420.309014	676.7999878
1420.836461	674.4000244
1421.363854	673.2000122
1421.891191	675.4000244
1422.418474	676.5999756
1422.945701	670.7999878
1423.472872	670.4000244
1423.999989	677.0
1424.52705	674.2000122
1425.054057	677.7999878
1425.581008	682.7999878
1426.107904	683.5999756
1426.634745	677.0
1427.16153	676.2000122
1427.688261	674.5999756
1428.214936	675.2000122
1428.741556	672.4000244
1429.268121	673.0
1429.794631	674.2000122
1430.321085	671.4000244
1430.847485	670.2000122
1431.373829	669.7999878
1431.900118	668.2000122
1432.426353	673.0
1432.952532	671.7999878
1433.478655	672.5999756
1434.004724	673.2000122
1434.530738	672.7999878
1435.056696	672.5999756
1435.5826	671.0
1436.108448	671.0
1436.634241	666.2000122
1437.159979	669.2000122
1437.685662	671.2000122
1438.21129	671.0
1438.736863	670.0
1439.262381	668.2000122
1439.787843	666.5999756
1440.313251	669.7999878
1440.838603	667.2000122
1441.3639	669.5999756
1441.889143	669.2000122
1442.41433	670.5999756
1442.939462	667.7999878
1443.464539	669.5999756
1443.989561	669.4000244
1444.514528	668.0
1445.03944	664.5999756
1445.564297	669.4000244
1446.089099	668.4000244
1446.613846	666.0
1447.138537	668.2000122
1447.663174	667.7999878
1448.187756	667.7999878
1448.712282	664.7999878
1449.236754	664.5999756
1449.761171	665.5999756
1450.285532	666.0
1450.809839	666.0
1451.33409	669.2000122
1451.858287	666.0
1452.382428	669.4000244
1452.906515	665.7999878
1453.430546	665.0
1453.954523	665.5999756
1454.478444	665.4000244
1455.002311	667.2000122
1455.526123	666.7999878
1456.049879	665.7999878
1456.573581	665.0
1457.097227	663.7999878
1457.620819	667.4000244
1458.144356	666.0
1458.667837	667.0
1459.191264	666.0
1459.714636	666.0
1460.237952	665.4000244
1460.761214	668.2000122
1461.284421	666.7999878
1461.807573	665.2000122
1462.33067	667.5999756
1462.853712	666.4000244
1463.376699	667.2000122
1463.899632	664.5999756
1464.422509	665.2000122
1464.945331	667.4000244
1465.468099	665.4000244
1465.990811	663.7999878
1466.513469	663.5999756
1467.036071	665.0
1467.558619	662.7999878
1468.081112	665.0
1468.60355	664.4000244
1469.125933	663.0
1469.648261	667.7999878
1470.170534	668.5999756
1470.692752	663.2000122
1471.214916	663.5999756
1471.737024	666.4000244
1472.259078	665.7999878
1472.781077	665.2000122
1473.303021	663.4000244
1473.82491	665.4000244
1474.346744	664.4000244
1474.868523	663.4000244
1475.390248	666.0
1475.911917	662.5999756
1476.433532	667.4000244
1476.955092	666.0
1477.476597	663.4000244
1477.998047	665.7999878
1478.519442	665.0
1479.040783	666.2000122
1479.562068	664.0
1480.083299	663.4000244
1480.604475	662.2000122
1481.125596	665.7999878
1481.646663	666.0
1482.167674	661.4000244
1482.688631	665.4000244
1483.209533	664.5999756
1483.73038	664.2000122
1484.251172	663.7999878
1484.771909	661.4000244
1485.292592	663.4000244
1485.81322	661.4000244
1486.333793	665.4000244
1486.854311	662.5999756
1487.374775	666.0
1487.895183	664.0
1488.415537	663.4000244
1488.935836	662.4000244
1489.456081	661.0
1489.97627	665.2000122
1490.496405	663.7999878
1491.016485	663.4000244
1491.536511	665.5999756
1492.056481	665.2000122
1492.576397	662.4000244
1493.096258	663.4000244
1493.616064	661.5999756
1494.135816	665.2000122
1494.655513	664.7999878
1495.175155	662.4000244
1495.694742	664.0
1496.214274	662.5999756
1496.733752	663.5999756
1497.253175	662.0
1497.772544	663.7999878
1498.291858	665.5999756
1498.811116	662.4000244
1499.330321	661.5999756
1499.84947	671.0
1500.368565	666.4000244
1500.887605	664.5999756
1501.406591	662.0
1501.925521	665.7999878
1502.444397	664.5999756
1502.963219	662.5999756
1503.481985	665.0
1504.000697	662.5999756
1504.519355	661.2000122
1505.037957	665.0
1505.556505	662.2000122
1506.074999	660.4000244
1506.593437	663.5999756
1507.111821	661.7999878
1507.63015	663.0
1508.148425	662.2000122
1508.666645	661.7999878
1509.18481	662.0
1509.702921	663.0
1510.220977	661.4000244
1510.738979	667.5999756
1511.256925	661.2000122
1511.774817	662.5999756
1512.292655	663.2000122
1512.810438	664.7999878
1513.328166	660.4000244
1513.84584	663.5999756
1514.363459	663.2000122
1514.881023	665.0
1515.398533	664.5999756
1515.915988	663.0
1516.433389	661.4000244
1516.950734	662.5999756
1517.468026	661.2000122
1517.985263	664.5999756
1518.502445	663.4000244
1519.019572	660.0
1519.536645	663.2000122
1520.053664	665.0
1520.570628	664.5999756
1521.087537	661.2000122
1521.604392	664.0
1522.121192	662.7999878
1522.637937	662.4000244
1523.154628	663.5999756
1523.671265	663.2000122
1524.187847	664.7999878
1524.704374	662.4000244
1525.220847	660.7999878
1525.737265	661.7999878
1526.253629	663.4000244
1526.769938	664.2000122
1527.286192	662.2000122
1527.802392	663.4000244
1528.318538	664.5999756
1528.834629	664.2000122
1529.350666	663.7999878
1529.866648	662.7999878
1530.382575	663.2000122
1530.898448	665.5999756
1531.414266	662.7999878
1531.93003	661.5999756
1532.44574	660.5999756
1532.961395	663.0
1533.476995	663.7999878
1533.992541	663.0
1534.508033	661.5999756
1535.02347	664.5999756
1535.538852	664.0
1536.05418	664.7999878
1536.569454	665.5999756
1537.084673	664.5999756
1537.599837	662.7999878
1538.114947	662.7999878
1538.630003	660.7999878
1539.145004	663.4000244
1539.659951	663.2000122
1540.174843	662.0
1540.689681	662.7999878
1541.204465	661.4000244
1541.719194	662.4000244
1542.233868	666.5999756
1542.748488	661.5999756
1543.263054	659.4000244
1543.777565	662.7999878
1544.292022	663.0
1544.806424	662.2000122
1545.320772	662.4000244
1545.835066	663.5999756
1546.349305	662.2000122
1546.863489	662.4000244
1547.37762	662.4000244
1547.891696	662.5999756
1548.405717	663.0
1548.919684	662.0
1549.433597	664.7999878
1549.947455	666.0
1550.461259	662.4000244
1550.975009	663.5999756
1551.488704	661.7999878
1552.002345	660.0
1552.515931	662.7999878
1553.029463	662.5999756
1553.542941	658.7999878
1554.056364	662.2000122
1554.569733	660.0
1555.083048	661.0
1555.596308	661.7999878
1556.109514	662.0
1556.622665	663.5999756
1557.135762	662.7999878
1557.648805	661.5999756
1558.161794	661.4000244
1558.674728	665.0
1559.187608	664.4000244
1559.700433	662.4000244
1560.213205	665.4000244
1560.725921	662.4000244
1561.238584	660.2000122
1561.751192	664.2000122
1562.263746	663.5999756
1562.776246	666.0
1563.288691	662.7999878
1563.801082	664.0
1564.313419	663.7999878
1564.825701	660.4000244
1565.337929	663.4000244
1565.850103	661.5999756
1566.362223	664.4000244
1566.874288	664.4000244
1567.386299	660.2000122
1567.898256	662.0
1568.410158	663.5999756
1568.922007	662.7999878
1569.4338	665.0
1569.94554	661.5999756
1570.457226	663.2000122
1570.968857	662.5999756
1571.480434	659.5999756
1571.991956	660.7999878
1572.503425	662.2000122
1573.014839	661.4000244
1573.526199	660.7999878
1574.037505	660.5999756
1574.548756	660.7999878
1575.059953	666.0
1575.571096	661.4000244
1576.082185	662.7999878
1576.59322	660.5999756
1577.1042	663.0
1577.615126	663.4000244
1578.125998	663.7999878
1578.636816	661.4000244
1579.14758	664.2000122
1579.658289	662.2000122
1580.168944	665.2000122
1580.679545	661.2000122
1581.190092	661.5999756
1581.700585	660.5999756
1582.211023	661.0
1582.721407	662.7999878
1583.231737	662.0
1583.742013	660.0
1584.252235	662.0
1584.762403	662.5999756
1585.272516	662.2000122
1585.782575	662.5999756
1586.292581	660.7999878
1586.802532	661.7999878
1587.312428	661.4000244
1587.822271	659.5999756
1588.33206	661.2000122
1588.841794	663.4000244
1589.351474	664.5999756
1589.8611	661.0
1590.370672	660.7999878
1590.88019	663.0
1591.389654	661.4000244
1591.899064	661.7999878
1592.408419	660.0
