1042.452273	4195.399902
1043.018714	4207.799805
1043.585098	4185.799805
1044.151424	4214.600098
1044.717692	4147.399902
1045.283903	4196.399902
1045.850056	4199.0
1046.416151	4185.200195
1046.982188	4184.799805
1047.548167	4192.799805
1048.114089	4159.200195
1048.679953	4198.0
1049.24576	4159.200195
1049.811509	4187.200195
1050.3772	4181.200195
1050.942833	4186.200195
1051.508408	4177.799805
1052.073926	4155.600098
1052.639387	4153.600098
1053.204789	4170.399902
1053.770134	4154.200195
1054.335421	4198.399902
1054.900651	4166.200195
1055.465823	4153.200195
1056.030937	4161.799805
1056.595993	4158.200195
1057.160992	4116.600098
1057.725934	4135.0
1058.290817	4139.0
1058.855643	4159.200195
1059.420411	4127.600098
1059.985122	4151.200195
1060.549775	4132.200195
1061.114371	4164.200195
1061.678908	4138.200195
1062.243389	4144.600098
1062.807811	4125.399902
1063.372176	4135.799805
1063.936483	4126.399902
1064.500733	4106.399902
1065.064925	4106.200195
1065.62906	4106.0
1066.193137	4075.600098
1066.757156	4116.200195
1067.321118	4118.200195
1067.885022	4127.600098
1068.448869	4111.399902
1069.012658	4111.0
1069.57639	4095.399902
1070.140063	4106.0
1070.70368	4112.0
1071.267239	4104.600098
1071.83074	4079.199951
1072.394184	4085.199951
1072.95757	4090.600098
1073.520899	4076.800049
1074.08417	4080.199951
1074.647383	4078.0
1075.21054	4092.800049
1075.773638	4050.399902
1076.336679	4080.0
1076.899663	4049.0
1077.462589	4060.600098
1078.025457	4058.0
1078.588268	4039.800049
1079.151022	4027.399902
1079.713718	4037.399902
1080.276356	4064.199951
1080.838937	4091.600098
1081.401461	4020.800049
1081.963927	4009.800049
1082.526336	4037.800049
1083.088687	4023.399902
1083.650981	4052.0
1084.213217	4014.399902
1084.775396	4015.399902
1085.337517	4029.800049
1085.899581	4047.0
1086.461587	3995.600098
1087.023536	3998.800049
1087.585428	4022.0
1088.147262	4006.399902
1088.709039	3987.800049
1089.270758	4004.800049
1089.83242	4022.800049
1090.394024	3999.0
1090.955571	3980.399902
1091.517061	3989.600098
1092.078493	3965.0
1092.639868	3974.0
1093.201185	3985.0
1093.762445	3950.0
1094.323648	3983.199951
1094.884793	3997.399902
1095.445881	3955.399902
1096.006911	3945.800049
1096.567884	3942.199951
1097.1288	3959.600098
1097.689659	3936.0
1098.25046	3931.399902
1098.811203	3945.800049
1099.37189	3967.600098
1099.932518	3933.0
1100.49309	3942.0
1101.053604	3929.399902
1101.614061	3913.399902
1102.174461	3907.600098
1102.734803	3903.800049
1103.295088	3913.399902
1103.855316	3907.800049
1104.415486	3923.600098
1104.975599	3888.600098
1105.535655	3863.600098
1106.095653	3908.800049
1106.655594	3880.399902
1107.215478	3893.600098
1107.775305	3862.199951
1108.335074	3862.199951
1108.894786	3869.0
1109.45444	3896.199951
1110.014038	3830.399902
1110.573578	3880.199951
1111.133061	3840.0
1111.692486	3845.399902
1112.251854	3866.0
1112.811165	3849.199951
1113.370419	3864.600098
1113.929616	3854.800049
1114.488755	3833.0
1115.047837	3850.0
1115.606862	3831.399902
1116.16583	3881.199951
1116.72474	3851.800049
1117.283593	3844.399902
1117.842389	3833.0
1118.401128	3848.800049
1118.959809	3827.800049
1119.518433	3841.399902
1120.077	3805.800049
1120.63551	3823.800049
1121.193963	3797.600098
1121.752358	3848.800049
1122.310697	3826.600098
1122.868978	3808.199951
1123.427202	3808.399902
1123.985368	3846.199951
1124.543478	3801.600098
1125.10153	3840.800049
1125.659526	3810.800049
1126.217464	3820.600098
1126.775345	3791.0
1127.333168	3804.0
1127.890935	3806.199951
1128.448644	3812.800049
1129.006297	3772.199951
1129.563892	3800.600098
1130.12143	3796.399902
1130.678911	3794.0
1131.236335	3782.199951
1131.793701	3785.0
1132.351011	3777.399902
1132.908263	3771.399902
1133.465458	3782.199951
1134.022597	3795.0
1134.579678	3784.600098
1135.136702	3800.800049
1135.693669	3806.0
1136.250578	3783.600098
1136.807431	3780.0
1137.364227	3817.199951
1137.920965	3777.199951
1138.477647	3820.199951
1139.034271	3791.199951
1139.590839	3782.0
1140.147349	3783.800049
1140.703802	3771.199951
1141.260198	3763.800049
1141.816537	3803.399902
1142.37282	3783.800049
1142.929045	3784.0
1143.485213	3759.800049
1144.041323	3757.0
1144.597377	3766.800049
1145.153374	3774.600098
1145.709314	3750.800049
1146.265197	3821.0
1146.821023	3779.199951
1147.376792	3780.600098
1147.932503	3781.0
1148.488158	3793.399902
1149.043756	3790.800049
1149.599297	3808.0
1150.154781	3860.800049
1150.710207	3850.399902
1151.265577	3835.0
1151.82089	3759.399902
1152.376146	3783.0
1152.931345	3743.399902
1153.486487	3746.0
1154.041572	3764.199951
1154.5966	3750.399902
1155.151571	3795.600098
1155.706485	3777.800049
1156.261342	3775.399902
1156.816142	3770.0
1157.370885	3731.0
1157.925572	3750.600098
1158.480201	3802.199951
1159.034774	3753.199951
1159.589289	3786.399902
1160.143748	3734.800049
1160.698149	3752.0
1161.252494	3776.199951
1161.806782	3781.0
1162.361013	3772.600098
1162.915187	3745.399902
1163.469304	3747.0
1164.023364	3750.0
1164.577368	3748.399902
1165.131314	3740.399902
1165.685204	3769.199951
1166.239036	3734.199951
1166.792812	3745.199951
1167.346531	3743.199951
1167.900193	3732.399902
1168.453798	3712.399902
1169.007347	3748.800049
1169.560838	3697.0
1170.114273	3754.600098
1170.66765	3729.800049
1171.220971	3728.800049
1171.774235	3704.0
1172.327443	3735.0
1172.880593	3723.399902
1173.433687	3729.800049
1173.986723	3703.600098
1174.539703	3742.199951
1175.092626	3696.399902
1175.645493	3700.399902
1176.198302	3720.800049
1176.751055	3725.399902
1177.303751	3704.600098
1177.85639	3722.800049
1178.408972	3742.600098
1178.961498	3726.199951
1179.513966	3698.0
1180.066378	3725.0
1180.618733	3680.600098
1181.171032	3697.399902
1181.723273	3682.800049
1182.275458	3695.800049
1182.827586	3691.0
1183.379657	3674.399902
1183.931672	3695.399902
1184.48363	3698.800049
1185.035531	3648.800049
1185.587375	3686.600098
1186.139162	3689.0
1186.690893	3681.600098
1187.242567	3660.399902
1187.794184	3678.399902
1188.345745	3671.800049
1188.897249	3675.800049
1189.448696	3674.800049
1190.000086	3685.800049
1190.55142	3677.800049
1191.102697	3657.199951
1191.653918	3687.199951
1192.205081	3648.399902
1192.756188	3652.800049
1193.307238	3658.800049
1193.858232	3686.800049
1194.409169	3671.600098
1194.960049	3672.0
1195.510872	3649.199951
1196.061639	3653.399902
1196.612349	3620.600098
1197.163003	3678.600098
1197.713599	3635.800049
1198.264139	3647.199951
1198.814623	3643.199951
1199.36505	3662.399902
1199.91542	3608.399902
1200.465734	3625.800049
1201.01599	3619.399902
1201.566191	3606.800049
1202.116334	3633.399902
1202.666421	3644.0
1203.216452	3610.0
1203.766425	3641.199951
1204.316343	3634.0
1204.866203	3631.600098
1205.416007	3626.199951
1205.965754	3640.199951
1206.515445	3596.199951
1207.065079	3589.800049
1207.614657	3585.399902
1208.164177	3580.800049
1208.713642	3618.600098
1209.26305	3597.0
1209.812401	3595.800049
1210.361695	3595.800049
1210.910933	3609.600098
1211.460115	3637.399902
1212.00924	3594.0
1212.558308	3583.399902
1213.10732	3604.199951
1213.656275	3581.800049
1214.205174	3577.800049
1214.754016	3580.800049
1215.302801	3596.800049
1215.85153	3556.600098
1216.400203	3563.600098
1216.948819	3600.800049
1217.497378	3564.399902
1218.045881	3590.600098
1218.594327	3551.800049
1219.142717	3562.800049
1219.691051	3570.399902
1220.239327	3556.800049
1220.787548	3581.399902
1221.335712	3553.800049
1221.883819	3578.199951
1222.43187	3568.399902
1222.979864	3556.399902
1223.527802	3559.800049
1224.075683	3555.199951
1224.623508	3551.600098
1225.171277	3530.199951
1225.718989	3554.0
1226.266644	3557.0
1226.814243	3567.199951
1227.361786	3543.600098
1227.909272	3564.600098
1228.456702	3556.600098
1229.004075	3553.800049
1229.551392	3525.600098
1230.098652	3502.399902
1230.645856	3526.399902
1231.193003	3530.199951
1231.740094	3552.199951
1232.287129	3520.399902
1232.834107	3527.199951
1233.381029	3490.0
1233.927894	3524.600098
1234.474703	3506.0
1235.021455	3533.399902
1235.568151	3510.0
1236.114791	3521.399902
1236.661374	3525.800049
1237.207901	3531.199951
1237.754372	3465.399902
1238.300786	3521.399902
1238.847144	3489.800049
1239.393445	3503.0
1239.93969	3492.600098
1240.485879	3518.199951
1241.032011	3513.399902
1241.578087	3508.399902
1242.124106	3510.800049
1242.67007	3495.399902
1243.215976	3480.0
1243.761827	3502.0
1244.307621	3489.800049
1244.853359	3485.0
1245.39904	3493.199951
1245.944665	3475.199951
1246.490234	3489.800049
1247.035746	3495.399902
1247.581203	3482.600098
1248.126602	3474.600098
1248.671946	3491.600098
1249.217233	3490.600098
1249.762464	3490.600098
1250.307638	3500.800049
1250.852757	3491.0
1251.397819	3478.0
1251.942824	3480.399902
1252.487774	3487.600098
1253.032667	3458.600098
1253.577503	3447.399902
1254.122284	3500.399902
1254.667008	3456.0
1255.211676	3437.600098
1255.756288	3450.0
1256.300843	3471.199951
1256.845342	3466.399902
1257.389785	3466.800049
1257.934172	3468.0
1258.478502	3474.600098
1259.022776	3449.800049
1259.566994	3453.0
1260.111156	3441.199951
1260.655261	3456.0
1261.199311	3459.800049
1261.743304	3470.800049
1262.28724	3473.600098
1262.831121	3452.399902
1263.374945	3437.800049
1263.918713	3439.0
1264.462425	3466.800049
1265.006081	3458.399902
1265.54968	3440.399902
1266.093223	3452.600098
1266.636711	3441.800049
1267.180141	3421.0
1267.723516	3441.600098
1268.266835	3431.800049
1268.810097	3445.800049
1269.353303	3398.399902
1269.896453	3424.0
1270.439547	3452.0
1270.982584	3442.800049
1271.525566	3425.199951
1272.068491	3439.600098
1272.61136	3434.0
1273.154173	3428.600098
1273.69693	3421.399902
1274.239631	3421.600098
1274.782275	3439.0
1275.324864	3424.600098
1275.867396	3410.800049
1276.409872	3403.399902
1276.952292	3416.800049
1277.494656	3426.0
1278.036964	3413.600098
1278.579215	3401.399902
1279.121411	3402.399902
1279.66355	3407.399902
1280.205634	3397.600098
1280.747661	3441.0
1281.289632	3428.199951
1281.831547	3408.199951
1282.373406	3401.399902
1282.915209	3452.399902
1283.456955	3514.0
1283.998646	3628.399902
1284.540281	3907.199951
1285.081859	3954.0
1285.623381	3695.399902
1286.164848	3508.399902
1286.706258	3458.399902
1287.247612	3388.399902
1287.788911	3407.600098
1288.330153	3384.0
1288.871339	3372.800049
1289.412469	3366.800049
1289.953543	3391.0
1290.494561	3351.0
1291.035523	3405.800049
1291.576428	3351.600098
1292.117278	3386.600098
1292.658072	3379.800049
1293.19881	3366.399902
1293.739492	3375.600098
1294.280118	3363.0
1294.820687	3352.199951
1295.361201	3351.199951
1295.901659	3368.600098
1296.442061	3355.600098
1296.982406	3353.0
1297.522696	3349.399902
1298.06293	3345.0
1298.603108	3355.399902
1299.143229	3341.600098
1299.683295	3360.399902
1300.223305	3341.199951
1300.763259	3329.800049
1301.303157	3304.800049
1301.842999	3332.399902
1302.382785	3312.600098
1302.922515	3296.800049
1303.462189	3343.199951
1304.001807	3305.800049
1304.541369	3310.600098
1305.080875	3318.199951
1305.620326	3331.600098
1306.15972	3297.800049
1306.699058	3349.800049
1307.238341	3274.199951
1307.777567	3315.0
1308.316738	3311.600098
1308.855853	3316.0
1309.394912	3321.199951
1309.933915	3299.800049
1310.472862	3322.800049
1311.011753	3309.199951
1311.550588	3307.199951
1312.089367	3273.800049
1312.62809	3301.399902
1313.166758	3287.600098
1313.70537	3301.600098
1314.243925	3283.0
1314.782425	3310.199951
1315.320869	3323.399902
1315.859257	3286.199951
1316.397589	3322.800049
1316.935866	3282.800049
1317.474086	3311.399902
1318.012251	3281.800049
1318.55036	3291.199951
1319.088413	3281.800049
1319.62641	3297.0
1320.164351	3277.800049
1320.702236	3288.399902
1321.240066	3290.199951
1321.777839	3276.0
1322.315557	3266.199951
1322.853219	3267.199951
1323.390826	3264.600098
1323.928376	3273.800049
1324.465871	3263.600098
1325.003309	3252.199951
1325.540692	3287.199951
1326.07802	3251.800049
1326.615291	3261.0
1327.152506	3257.399902
1327.689666	3286.399902
1328.22677	3261.0
1328.763818	3244.600098
1329.300811	3228.0
1329.837747	3252.0
1330.374628	3230.399902
1330.911453	3252.399902
1331.448222	3219.800049
1331.984936	3254.800049
1332.521594	3232.399902
1333.058196	3255.600098
1333.594742	3255.800049
1334.131232	3254.199951
1334.667667	3238.800049
1335.204046	3236.199951
1335.740369	3226.199951
1336.276637	3249.600098
1336.812848	3237.399902
1337.349004	3248.399902
1337.885105	3245.399902
1338.421149	3260.600098
1338.957138	3225.600098
1339.493071	3252.600098
1340.028949	3236.800049
1340.56477	3207.199951
1341.100536	3249.399902
1341.636246	3218.399902
1342.171901	3201.399902
1342.7075	3215.199951
1343.243043	3217.800049
1343.77853	3201.399902
1344.313962	3200.399902
1344.849338	3232.199951
1345.384659	3208.0
1345.919923	3201.0
1346.455133	3204.0
1346.990286	3189.199951
1347.525384	3234.0
1348.060426	3180.800049
1348.595412	3226.0
1349.130343	3189.199951
1349.665218	3198.600098
1350.200037	3189.800049
1350.734801	3211.399902
1351.269509	3181.0
1351.804162	3191.399902
1352.338758	3179.199951
1352.8733	3195.600098
1353.407785	3201.0
1353.942215	3186.199951
1354.476589	3169.0
1355.010908	3175.399902
1355.545171	3202.199951
1356.079379	3174.199951
1356.61353	3184.800049
1357.147627	3173.399902
1357.681667	3199.600098
1358.215652	3178.600098
1358.749582	3217.399902
1359.283456	3159.399902
1359.817274	3178.600098
1360.351037	3159.399902
1360.884744	3193.0
1361.418395	3151.800049
1361.951991	3192.399902
1362.485531	3156.800049
1363.019016	3163.800049
1363.552445	3195.800049
1364.085819	3157.199951
1364.619137	3168.800049
1365.1524	3178.800049
1365.685607	3168.399902
1366.218758	3145.199951
1366.751854	3163.800049
1367.284894	3138.800049
1367.817879	3146.199951
1368.350808	3137.0
1368.883682	3144.0
1369.4165	3126.800049
1369.949263	3177.199951
1370.48197	3157.399902
1371.014622	3126.600098
1371.547218	3143.0
1372.079758	3159.0
1372.612244	3144.199951
1373.144673	3113.800049
1373.677047	3162.800049
1374.209366	3154.600098
1374.741629	3137.199951
1375.273836	3102.600098
1375.805989	3157.800049
1376.338085	3132.800049
1376.870126	3152.0
1377.402112	3128.0
1377.934042	3142.399902
1378.465917	3140.600098
1378.997736	3136.600098
1379.5295	3166.0
1380.061208	3145.399902
1380.592861	3109.0
1381.124459	3136.199951
1381.656	3135.199951
1382.187487	3121.399902
1382.718918	3158.800049
1383.250294	3132.199951
1383.781614	3118.800049
1384.312879	3135.600098
1384.844088	3140.600098
1385.375242	3133.800049
1385.90634	3157.600098
1386.437383	3176.199951
1386.968371	3258.600098
1387.499303	3425.800049
1388.03018	4046.199951
1388.561001	4194.399902
1389.091767	3562.399902
1389.622478	3224.600098
1390.153133	3150.600098
1390.683733	3131.399902
1391.214277	3104.800049
1391.744766	3118.199951
1392.2752	3099.399902
1392.805578	3122.399902
1393.335901	3078.800049
1393.866168	3098.800049
1394.396381	3089.199951
1394.926537	3124.199951
1395.456639	3100.800049
1395.986685	3124.600098
1396.516675	3085.800049
1397.046611	3137.199951
1397.576491	3095.199951
1398.106315	3108.199951
1398.636084	3089.800049
1399.165798	3123.600098
1399.695457	3095.600098
1400.22506	3077.399902
1400.754608	3097.399902
1401.284101	3074.199951
1401.813538	3079.199951
1402.34292	3054.199951
1402.872247	3116.600098
1403.401518	3075.199951
1403.930734	3076.600098
1404.459895	3064.800049
1404.989	3063.199951
1405.51805	3086.600098
1406.047045	3096.399902
1406.575984	3084.600098
1407.104869	3087.399902
1407.633697	3083.600098
1408.162471	3067.399902
1408.691189	3103.399902
1409.219852	3106.600098
1409.74846	3130.199951
1410.277013	3116.199951
1410.80551	3099.399902
1411.333952	3087.600098
1411.862339	3076.199951
1412.39067	3038.800049
1412.918946	3066.399902
1413.447167	3066.800049
1413.975333	3040.800049
1414.503444	3053.199951
1415.031499	3049.0
1415.559499	3063.600098
1416.087444	3031.0
1416.615333	3043.600098
1417.143167	3039.800049
1417.670947	3049.600098
1418.19867	3029.399902
1418.726339	3046.800049
1419.253952	3056.199951
1419.781511	3043.0
1420.309014	3049.0
1420.836461	3040.199951
1421.363854	3034.600098
1421.891191	3047.399902
1422.418474	3031.600098
1422.945701	3065.600098
1423.472872	3047.0
1423.999989	3041.800049
1424.52705	3041.800049
1425.054057	3058.600098
1425.581008	3037.600098
1426.107904	3047.600098
1426.634745	3041.800049
1427.16153	3033.800049
1427.688261	3060.199951
1428.214936	3012.199951
1428.741556	3040.399902
1429.268121	3041.0
1429.794631	3033.0
1430.321085	3014.0
1430.847485	3037.800049
1431.373829	3016.399902
1431.900118	3019.199951
1432.426353	3017.0
1432.952532	3008.399902
1433.478655	3021.800049
1434.004724	2992.399902
1434.530738	3022.0
1435.056696	2984.0
1435.5826	3017.800049
1436.108448	2993.800049
1436.634241	3018.399902
1437.159979	3000.800049
1437.685662	3015.600098
1438.21129	3004.399902
1438.736863	3013.399902
1439.262381	3016.600098
1439.787843	3003.800049
1440.313251	2993.0
1440.838603	2988.800049
1441.3639	2992.600098
1441.889143	3009.800049
1442.41433	2975.800049
1442.939462	3003.600098
1443.464539	3006.0
1443.989561	2990.600098
1444.514528	2976.600098
1445.03944	2987.199951
1445.564297	3004.800049
1446.089099	2987.800049
1446.613846	2985.600098
1447.138537	2972.0
1447.663174	2984.199951
1448.187756	2971.800049
1448.712282	3000.0
1449.236754	2962.199951
1449.761171	2973.199951
1450.285532	2973.800049
1450.809839	2982.800049
1451.33409	2978.0
1451.858287	2977.0
1452.382428	2930.800049
1452.906515	2958.399902
1453.430546	2978.399902
1453.954523	2978.600098
1454.478444	2960.199951
1455.002311	2971.0
1455.526123	2953.399902
1456.049879	2949.399902
1456.573581	2943.800049
1457.097227	2939.800049
1457.620819	2944.600098
1458.144356	2950.199951
1458.667837	2962.0
1459.191264	2963.0
1459.714636	2954.199951
1460.237952	2957.0
1460.761214	2953.600098
1461.284421	2971.600098
1461.807573	2960.800049
1462.33067	2956.800049
1462.853712	2963.399902
1463.376699	2960.600098
1463.899632	2941.600098
1464.422509	2958.399902
1464.945331	2938.600098
1465.468099	2954.600098
1465.990811	2931.600098
1466.513469	2928.0
1467.036071	2918.199951
1467.558619	2899.600098
1468.081112	2928.600098
1468.60355	2909.0
1469.125933	2958.800049
1469.648261	2928.399902
1470.170534	2923.600098
1470.692752	2928.800049
1471.214916	2934.0
1471.737024	2913.0
1472.259078	2918.0
1472.781077	2931.399902
1473.303021	2921.600098
1473.82491	2955.600098
1474.346744	2939.800049
1474.868523	2904.600098
1475.390248	2927.199951
1475.911917	2898.600098
1476.433532	2885.0
1476.955092	2900.0
1477.476597	2897.399902
1477.998047	2904.199951
1478.519442	2880.800049
1479.040783	2878.199951
1479.562068	2897.399902
1480.083299	2900.0
1480.604475	2901.800049
1481.125596	2911.600098
1481.646663	2892.800049
1482.167674	2891.199951
1482.688631	2901.0
1483.209533	2892.399902
1483.73038	2879.399902
1484.251172	2867.0
1484.771909	2878.800049
1485.292592	2889.0
1485.81322	2882.199951
1486.333793	2882.600098
1486.854311	2891.399902
1487.374775	2886.399902
1487.895183	2892.199951
1488.415537	2854.199951
1488.935836	2867.800049
1489.456081	2886.199951
1489.97627	2879.800049
1490.496405	2883.600098
1491.016485	2845.600098
1491.536511	2846.399902
1492.056481	2869.399902
1492.576397	2867.199951
1493.096258	2871.600098
1493.616064	2867.0
1494.135816	2865.600098
1494.655513	2873.600098
1495.175155	2864.399902
1495.694742	2836.0
1496.214274	2840.199951
1496.733752	2840.600098
1497.253175	2858.600098
1497.772544	2844.800049
1498.291858	2859.0
1498.811116	2860.0
1499.330321	2836.800049
1499.84947	2863.800049
1500.368565	2852.800049
1500.887605	2870.199951
1501.406591	2826.600098
1501.925521	2851.800049
1502.444397	2836.399902
1502.963219	2873.0
1503.481985	2846.600098
1504.000697	2836.600098
1504.519355	2839.600098
1505.037957	2843.399902
1505.556505	2814.800049
1506.074999	2843.0
1506.593437	2836.199951
1507.111821	2806.399902
1507.63015	2841.600098
1508.148425	2819.199951
1508.666645	2825.600098
1509.18481	2819.199951
1509.702921	2833.399902
1510.220977	2819.0
1510.738979	2856.0
1511.256925	2819.199951
1511.774817	2832.199951
1512.292655	2812.399902
1512.810438	2819.800049
1513.328166	2808.600098
1513.84584	2816.600098
1514.363459	2832.0
1514.881023	2821.600098
1515.398533	2803.800049
1515.915988	2852.399902
1516.433389	2812.600098
1516.950734	2822.600098
1517.468026	2832.0
1517.985263	2793.399902
1518.502445	2825.399902
1519.019572	2815.399902
1519.536645	2809.399902
1520.053664	2794.399902
1520.570628	2817.800049
1521.087537	2794.800049
1521.604392	2825.199951
1522.121192	2800.800049
1522.637937	2795.800049
1523.154628	2818.600098
1523.671265	2799.399902
1524.187847	2784.0
1524.704374	2779.800049
1525.220847	2792.399902
1525.737265	2792.600098
1526.253629	2818.399902
1526.769938	2807.800049
1527.286192	2809.600098
1527.802392	2793.600098
1528.318538	2809.800049
1528.834629	2791.0
1529.350666	2800.199951
1529.866648	2807.399902
1530.382575	2795.199951
1530.898448	2803.199951
1531.414266	2786.399902
1531.93003	2810.199951
1532.44574	2796.399902
1532.961395	2795.399902
1533.476995	2799.399902
1533.992541	2819.399902
1534.508033	2797.800049
1535.02347	2811.800049
1535.538852	2804.0
1536.05418	2783.199951
1536.569454	2791.800049
1537.084673	2802.199951
1537.599837	2789.0
1538.114947	2772.800049
1538.630003	2806.199951
1539.145004	2793.600098
1539.659951	2794.600098
1540.174843	2779.199951
1540.689681	2788.800049
1541.204465	2788.399902
1541.719194	2782.0
1542.233868	2779.0
1542.748488	2783.800049
1543.263054	2794.199951
1543.777565	2777.399902
1544.292022	2785.0
1544.806424	2788.800049
1545.320772	2765.0
1545.835066	2764.399902
1546.349305	2776.199951
1546.863489	2772.0
1547.37762	2766.0
1547.891696	2781.0
1548.405717	2782.800049
1548.919684	2756.0
1549.433597	2758.199951
1549.947455	2770.600098
1550.461259	2781.800049
1550.975009	2782.199951
1551.488704	2768.800049
1552.002345	2758.0
1552.515931	2758.800049
1553.029463	2755.199951
1553.542941	2776.399902
1554.056364	2767.0
1554.569733	2765.399902
1555.083048	2766.600098
1555.596308	2768.0
1556.109514	2760.600098
1556.622665	2759.600098
1557.135762	2743.199951
1557.648805	2781.0
1558.161794	2757.199951
1558.674728	2757.199951
1559.187608	2768.600098
1559.700433	2750.399902
1560.213205	2765.0
1560.725921	2756.800049
1561.238584	2737.399902
1561.751192	2752.199951
1562.263746	2735.600098
1562.776246	2760.800049
1563.288691	2759.600098
1563.801082	2759.800049
1564.313419	2758.600098
1564.825701	2763.800049
1565.337929	2731.399902
1565.850103	2796.800049
1566.362223	2761.800049
1566.874288	2745.0
1567.386299	2753.399902
1567.898256	2751.600098
1568.410158	2749.199951
1568.922007	2743.0
1569.4338	2725.0
1569.94554	2762.199951
1570.457226	2773.199951
1570.968857	2735.600098
1571.480434	2760.600098
1571.991956	2761.199951
1572.503425	2749.399902
1573.014839	2754.800049
1573.526199	2737.600098
1574.037505	2762.600098
1574.548756	2740.600098
1575.059953	2742.600098
1575.571096	2727.600098
1576.082185	2717.0
1576.59322	2725.600098
1577.1042	2759.199951
1577.615126	2744.600098
1578.125998	2736.399902
1578.636816	2730.800049
1579.14758	2739.0
1579.658289	2734.199951
1580.168944	2710.800049
1580.679545	2736.600098
1581.190092	2715.399902
1581.700585	2726.800049
1582.211023	2715.600098
1582.721407	2739.600098
1583.231737	2702.199951
1583.742013	2720.600098
1584.252235	2726.800049
1584.762403	2708.800049
1585.272516	2736.800049
1585.782575	2723.399902
1586.292581	2713.199951
1586.802532	2707.399902
1587.312428	2727.0
1587.822271	2703.0
1588.33206	2728.600098
1588.841794	2719.800049
1589.351474	2692.199951
1589.8611	2706.800049
1590.370672	2716.399902
1590.88019	2732.800049
1591.389654	2700.0
1591.899064	2721.600098
