1042.452273	21796.40039
1043.018714	21946.80078
1043.585098	21855.59961
1044.151424	22000.80078
1044.717692	21852.19922
1045.283903	21904.59961
1045.850056	21776.40039
1046.416151	21891.40039
1046.982188	21736.19922
1047.548167	21862.80078
1048.114089	21790.19922
1048.679953	21858.19922
1049.24576	21646.0
1049.811509	21840.19922
1050.3772	21630.0
1050.942833	21788.19922
1051.508408	21645.40039
1052.073926	21677.40039
1052.639387	21591.59961
1053.204789	21711.19922
1053.770134	21570.80078
1054.335421	21622.40039
1054.900651	21642.0
1055.465823	21550.0
1056.030937	21428.59961
1056.595993	21563.40039
1057.160992	21522.59961
1057.725934	21538.80078
1058.290817	21436.40039
1058.855643	21543.59961
1059.420411	21428.40039
1059.985122	21413.19922
1060.549775	21303.59961
1061.114371	21431.59961
1061.678908	21328.80078
1062.243389	21416.40039
1062.807811	21235.0
1063.372176	21345.59961
1063.936483	21330.0
1064.500733	21288.80078
1065.064925	21288.19922
1065.62906	21333.80078
1066.193137	21209.0
1066.757156	21289.59961
1067.321118	21119.80078
1067.885022	21182.19922
1068.448869	21201.40039
1069.012658	21168.59961
1069.57639	21124.0
1070.140063	21103.80078
1070.70368	21058.80078
1071.267239	21030.0
1071.83074	21023.80078
1072.394184	21050.19922
1072.95757	20942.59961
1073.520899	20977.40039
1074.08417	20867.80078
1074.647383	21037.0
1075.21054	20916.19922
1075.773638	20862.40039
1076.336679	20959.0
1076.899663	20852.59961
1077.462589	20713.40039
1078.025457	20850.0
1078.588268	20862.59961
1079.151022	20744.80078
1079.713718	20743.0
1080.276356	20798.80078
1080.838937	20675.59961
1081.401461	20684.19922
1081.963927	20669.80078
1082.526336	20623.80078
1083.088687	20584.80078
1083.650981	20571.0
1084.213217	20473.0
1084.775396	20511.19922
1085.337517	20413.40039
1085.899581	20528.59961
1086.461587	20391.19922
1087.023536	20470.80078
1087.585428	20497.80078
1088.147262	20454.40039
1088.709039	20356.59961
1089.270758	20408.19922
1089.83242	20375.40039
1090.394024	20325.19922
1090.955571	20264.19922
1091.517061	20267.0
1092.078493	20136.59961
1092.639868	20140.19922
1093.201185	20237.59961
1093.762445	20160.59961
1094.323648	20065.80078
1094.884793	20108.19922
1095.445881	19977.59961
1096.006911	20087.80078
1096.567884	19994.59961
1097.1288	20018.80078
1097.689659	20004.59961
1098.25046	20006.0
1098.811203	19927.19922
1099.37189	19977.40039
1099.932518	19848.59961
1100.49309	19893.0
1101.053604	19808.59961
1101.614061	19810.0
1102.174461	19708.19922
1102.734803	19774.59961
1103.295088	19733.19922
1103.855316	19763.0
1104.415486	19643.0
1104.975599	19669.80078
1105.535655	19602.80078
1106.095653	19593.0
1106.655594	19565.19922
1107.215478	19560.59961
1107.775305	19484.0
1108.335074	19501.19922
1108.894786	19423.19922
1109.45444	19438.40039
1110.014038	19395.40039
1110.573578	19429.19922
1111.133061	19389.40039
1111.692486	19424.80078
1112.251854	19238.40039
1112.811165	19286.80078
1113.370419	19246.40039
1113.929616	19330.19922
1114.488755	19260.19922
1115.047837	19273.0
1115.606862	19151.80078
1116.16583	19332.80078
1116.72474	19166.19922
1117.283593	19292.19922
1117.842389	19098.59961
1118.401128	19210.40039
1118.959809	19110.19922
1119.518433	19192.40039
1120.077	19045.40039
1120.63551	19199.59961
1121.193963	18971.40039
1121.752358	19206.19922
1122.310697	19043.40039
1122.868978	19172.40039
1123.427202	19042.59961
1123.985368	19020.0
1124.543478	18948.40039
1125.10153	19044.80078
1125.659526	18865.80078
1126.217464	19056.40039
1126.775345	18839.40039
1127.333168	19041.80078
1127.890935	18898.19922
1128.448644	18938.40039
1129.006297	18800.19922
1129.563892	18868.19922
1130.12143	18713.19922
1130.678911	18914.0
1131.236335	18724.0
1131.793701	18885.80078
1132.351011	18757.80078
1132.908263	18826.40039
1133.465458	18731.40039
1134.022597	18778.59961
1134.579678	18701.80078
1135.136702	18783.19922
1135.693669	18635.80078
1136.250578	18731.59961
1136.807431	18702.40039
1137.364227	18769.80078
1137.920965	18755.19922
1138.477647	18796.0
1139.034271	18660.59961
1139.590839	18664.80078
1140.147349	18615.19922
1140.703802	18727.0
1141.260198	18615.59961
1141.816537	18654.80078
1142.37282	18616.0
1142.929045	18720.19922
1143.485213	18637.40039
1144.041323	18644.59961
1144.597377	18602.80078
1145.153374	18661.40039
1145.709314	18590.80078
1146.265197	18637.40039
1146.821023	18613.0
1147.376792	18647.80078
1147.932503	18640.59961
1148.488158	18592.80078
1149.043756	18632.0
1149.599297	18496.0
1150.154781	18635.80078
1150.710207	18636.19922
1151.265577	18637.40039
1151.82089	18584.19922
1152.376146	18562.80078
1152.931345	18533.59961
1153.486487	18521.19922
1154.041572	18491.40039
1154.5966	18537.40039
1155.151571	18562.19922
1155.706485	18518.40039
1156.261342	18555.59961
1156.816142	18521.0
1157.370885	18470.59961
1157.925572	18472.80078
1158.480201	18551.0
1159.034774	18541.0
1159.589289	18411.40039
1160.143748	18442.80078
1160.698149	18374.40039
1161.252494	18426.0
1161.806782	18366.40039
1162.361013	18416.19922
1162.915187	18426.19922
1163.469304	18457.0
1164.023364	18456.40039
1164.577368	18403.80078
1165.131314	18251.19922
1165.685204	18356.0
1166.239036	18268.0
1166.792812	18396.19922
1167.346531	18298.80078
1167.900193	18299.40039
1168.453798	18221.59961
1169.007347	18243.19922
1169.560838	18168.59961
1170.114273	18200.40039
1170.66765	18160.0
1171.220971	18268.40039
1171.774235	18114.19922
1172.327443	18125.40039
1172.880593	18137.40039
1173.433687	18228.19922
1173.986723	18087.59961
1174.539703	18139.19922
1175.092626	18150.40039
1175.645493	18255.59961
1176.198302	18070.40039
1176.751055	18069.19922
1177.303751	18097.0
1177.85639	18110.59961
1178.408972	18083.59961
1178.961498	18125.0
1179.513966	18024.80078
1180.066378	17977.59961
1180.618733	17997.59961
1181.171032	18058.59961
1181.723273	18012.59961
1182.275458	17962.19922
1182.827586	17949.40039
1183.379657	17979.19922
1183.931672	17924.0
1184.48363	17935.80078
1185.035531	17955.0
1185.587375	17885.80078
1186.139162	17926.19922
1186.690893	17808.59961
1187.242567	17868.40039
1187.794184	17809.0
1188.345745	17853.80078
1188.897249	17797.19922
1189.448696	17784.19922
1190.000086	17730.0
1190.55142	17844.59961
1191.102697	17839.0
1191.653918	17775.40039
1192.205081	17739.80078
1192.756188	17772.0
1193.307238	17736.19922
1193.858232	17778.80078
1194.409169	17634.19922
1194.960049	17724.0
1195.510872	17689.59961
1196.061639	17658.19922
1196.612349	17652.80078
1197.163003	17595.59961
1197.713599	17618.80078
1198.264139	17629.19922
1198.814623	17577.0
1199.36505	17530.80078
1199.91542	17541.0
1200.465734	17595.19922
1201.01599	17494.0
1201.566191	17587.40039
1202.116334	17516.59961
1202.666421	17521.40039
1203.216452	17474.59961
1203.766425	17478.59961
1204.316343	17445.19922
1204.866203	17446.59961
1205.416007	17429.0
1205.965754	17461.59961
1206.515445	17376.19922
1207.065079	17331.80078
1207.614657	17349.59961
1208.164177	17321.19922
1208.713642	17350.19922
1209.26305	17326.80078
1209.812401	17259.80078
1210.361695	17273.40039
1210.910933	17312.80078
1211.460115	17319.59961
1212.00924	17211.19922
1212.558308	17199.0
1213.10732	17202.59961
1213.656275	17172.19922
1214.205174	17230.80078
1214.754016	17129.59961
1215.302801	17146.59961
1215.85153	17237.19922
1216.400203	17159.40039
1216.948819	17154.59961
1217.497378	17111.19922
1218.045881	17088.40039
1218.594327	17053.19922
1219.142717	17055.59961
1219.691051	17032.40039
1220.239327	17103.80078
1220.787548	17022.0
1221.335712	17030.40039
1221.883819	17027.19922
1222.43187	16992.59961
1222.979864	16974.0
1223.527802	17003.19922
1224.075683	16961.40039
1224.623508	16902.19922
1225.171277	16934.59961
1225.718989	16936.59961
1226.266644	16889.19922
1226.814243	16915.0
1227.361786	16872.80078
1227.909272	16875.0
1228.456702	16888.0
1229.004075	16865.80078
1229.551392	16872.19922
1230.098652	16858.40039
1230.645856	16855.19922
1231.193003	16831.40039
1231.740094	16838.59961
1232.287129	16789.0
1232.834107	16801.80078
1233.381029	16778.19922
1233.927894	16754.40039
1234.474703	16692.19922
1235.021455	16743.19922
1235.568151	16675.80078
1236.114791	16719.80078
1236.661374	16722.19922
1237.207901	16719.19922
1237.754372	16619.80078
1238.300786	16695.19922
1238.847144	16592.80078
1239.393445	16642.0
1239.93969	16643.40039
1240.485879	16684.80078
1241.032011	16585.40039
1241.578087	16646.40039
1242.124106	16549.59961
1242.67007	16610.40039
1243.215976	16652.80078
1243.761827	16582.19922
1244.307621	16533.19922
1244.853359	16542.19922
1245.39904	16556.19922
1245.944665	16571.40039
1246.490234	16550.40039
1247.035746	16533.59961
1247.581203	16530.19922
1248.126602	16489.59961
1248.671946	16513.19922
1249.217233	16403.40039
1249.762464	16470.40039
1250.307638	16413.80078
1250.852757	16483.40039
1251.397819	16384.80078
1251.942824	16464.80078
1252.487774	16413.19922
1253.032667	16418.80078
1253.577503	16338.0
1254.122284	16390.0
1254.667008	16317.40039
1255.211676	16358.40039
1255.756288	16258.0
1256.300843	16381.40039
1256.845342	16274.59961
1257.389785	16312.40039
1257.934172	16243.40039
1258.478502	16341.0
1259.022776	16294.2002
1259.566994	16289.59961
1260.111156	16276.7998
1260.655261	16250.40039
1261.199311	16171.0
1261.743304	16162.0
1262.28724	16190.40039
1262.831121	16195.0
1263.374945	16175.7998
1263.918713	16165.59961
1264.462425	16246.40039
1265.006081	16148.0
1265.54968	16132.59961
1266.093223	16112.59961
1266.636711	16119.59961
1267.180141	16097.2002
1267.723516	16134.0
1268.266835	16003.7998
1268.810097	16160.59961
1269.353303	16006.59961
1269.896453	16069.7998
1270.439547	16002.7998
1270.982584	16058.0
1271.525566	16094.7998
1272.068491	16047.0
1272.61136	16008.0
1273.154173	16013.59961
1273.69693	15971.7998
1274.239631	15963.40039
1274.782275	15914.0
1275.324864	16000.40039
1275.867396	15962.40039
1276.409872	15942.2002
1276.952292	15963.2002
1277.494656	15980.0
1278.036964	15889.59961
1278.579215	15988.0
1279.121411	15910.40039
1279.66355	15859.59961
1280.205634	15878.59961
1280.747661	15897.2002
1281.289632	15888.0
1281.831547	15777.40039
1282.373406	15836.0
1282.915209	15908.40039
1283.456955	15949.40039
1283.998646	16022.40039
1284.540281	16153.0
1285.081859	15994.59961
1285.623381	15867.0
1286.164848	15790.40039
1286.706258	15809.7998
1287.247612	15714.0
1287.788911	15709.59961
1288.330153	15619.40039
1288.871339	15727.0
1289.412469	15659.2002
1289.953543	15701.7998
1290.494561	15681.7998
1291.035523	15733.7998
1291.576428	15617.2002
1292.117278	15657.7998
1292.658072	15581.2002
1293.19881	15607.2002
1293.739492	15559.7998
1294.280118	15559.0
1294.820687	15622.40039
1295.361201	15638.0
1295.901659	15588.40039
1296.442061	15558.2002
1296.982406	15563.7998
1297.522696	15488.0
1298.06293	15578.40039
1298.603108	15456.40039
1299.143229	15597.0
1299.683295	15438.40039
1300.223305	15557.0
1300.763259	15426.59961
1301.303157	15428.2002
1301.842999	15351.0
1302.382785	15462.0
1302.922515	15373.40039
1303.462189	15411.40039
1304.001807	15319.59961
1304.541369	15414.7998
1305.080875	15315.7998
1305.620326	15390.0
1306.15972	15330.0
1306.699058	15263.40039
1307.238341	15416.0
1307.777567	15311.40039
1308.316738	15337.7998
1308.855853	15235.2002
1309.394912	15307.2002
1309.933915	15275.7998
1310.472862	15311.2002
1311.011753	15233.0
1311.550588	15259.7998
1312.089367	15200.0
1312.62809	15216.40039
1313.166758	15190.0
1313.70537	15274.0
1314.243925	15106.59961
1314.782425	15230.2002
1315.320869	15165.7998
1315.859257	15176.7998
1316.397589	15182.59961
1316.935866	15162.2002
1317.474086	15133.59961
1318.012251	15079.2002
1318.55036	15103.59961
1319.088413	15135.0
1319.62641	15096.40039
1320.164351	15071.7998
1320.702236	15103.2002
1321.240066	15012.7998
1321.777839	15143.2002
1322.315557	14999.40039
1322.853219	14987.7998
1323.390826	14989.40039
1323.928376	15119.7998
1324.465871	14955.7998
1325.003309	15017.2002
1325.540692	14939.2002
1326.07802	15051.0
1326.615291	14939.2002
1327.152506	14956.59961
1327.689666	14873.2002
1328.22677	14997.7998
1328.763818	14933.59961
1329.300811	14997.40039
1329.837747	14945.2002
1330.374628	14927.2002
1330.911453	14885.7998
1331.448222	14868.59961
1331.984936	14889.2002
1332.521594	14840.2002
1333.058196	14891.7998
1333.594742	14861.7998
1334.131232	14903.40039
1334.667667	14792.7998
1335.204046	14833.0
1335.740369	14811.0
1336.276637	14821.40039
1336.812848	14828.2002
1337.349004	14843.7998
1337.885105	14796.7998
1338.421149	14863.0
1338.957138	14712.7998
1339.493071	14736.7998
1340.028949	14685.2002
1340.56477	14763.40039
1341.100536	14716.2002
1341.636246	14697.2002
1342.171901	14692.59961
1342.7075	14680.40039
1343.243043	14676.0
1343.77853	14668.59961
1344.313962	14663.7998
1344.849338	14597.0
1345.384659	14658.7998
1345.919923	14492.0
1346.455133	14642.7998
1346.990286	14659.59961
1347.525384	14622.0
1348.060426	14604.40039
1348.595412	14538.0
1349.130343	14506.59961
1349.665218	14620.2002
1350.200037	14603.7998
1350.734801	14588.0
1351.269509	14559.40039
1351.804162	14601.7998
1352.338758	14516.40039
1352.8733	14549.40039
1353.407785	14539.2002
1353.942215	14489.7998
1354.476589	14534.59961
1355.010908	14438.2002
1355.545171	14524.2002
1356.079379	14386.7998
1356.61353	14497.2002
1357.147627	14391.59961
1357.681667	14455.7998
1358.215652	14320.0
1358.749582	14471.40039
1359.283456	14423.2002
1359.817274	14478.2002
1360.351037	14376.59961
1360.884744	14361.2002
1361.418395	14376.40039
1361.951991	14344.0
1362.485531	14396.40039
1363.019016	14323.59961
1363.552445	14363.2002
1364.085819	14329.40039
1364.619137	14404.59961
1365.1524	14223.40039
1365.685607	14350.0
1366.218758	14236.40039
1366.751854	14362.40039
1367.284894	14219.7998
1367.817879	14337.40039
1368.350808	14231.40039
1368.883682	14250.40039
1369.4165	14194.0
1369.949263	14340.40039
1370.48197	14269.40039
1371.014622	14229.0
1371.547218	14260.2002
1372.079758	14181.59961
1372.612244	14233.59961
1373.144673	14214.0
1373.677047	14234.7998
1374.209366	14121.7998
1374.741629	14210.7998
1375.273836	14108.7998
1375.805989	14201.59961
1376.338085	14132.40039
1376.870126	14172.7998
1377.402112	14057.40039
1377.934042	14179.0
1378.465917	14075.0
1378.997736	14102.2002
1379.5295	14075.7998
1380.061208	14055.7998
1380.592861	14078.0
1381.124459	14029.40039
1381.656	14078.40039
1382.187487	14045.59961
1382.718918	14031.59961
1383.250294	14065.2002
1383.781614	14150.7998
1384.312879	13973.0
1384.844088	14094.59961
1385.375242	13965.40039
1385.90634	14085.59961
1386.437383	14063.40039
1386.968371	14186.40039
1387.499303	14416.0
1388.03018	14687.40039
1388.561001	14484.2002
1389.091767	14192.0
1389.622478	14007.59961
1390.153133	13975.0
1390.683733	13936.40039
1391.214277	13928.40039
1391.744766	14005.0
1392.2752	13887.0
1392.805578	13981.7998
1393.335901	13906.40039
1393.866168	13985.2002
1394.396381	13816.2002
1394.926537	13941.40039
1395.456639	13873.40039
1395.986685	13974.40039
1396.516675	13818.40039
1397.046611	13884.0
1397.576491	13865.2002
1398.106315	13836.59961
1398.636084	13833.2002
1399.165798	13824.59961
1399.695457	13853.59961
1400.22506	13785.2002
1400.754608	13815.40039
1401.284101	13713.0
1401.813538	13799.7998
1402.34292	13745.40039
1402.872247	13880.2002
1403.401518	13772.2002
1403.930734	13808.40039
1404.459895	13795.59961
1404.989	13855.0
1405.51805	13781.59961
1406.047045	13746.40039
1406.575984	13701.7998
1407.104869	13744.59961
1407.633697	13825.7998
1408.162471	13803.40039
1408.691189	13767.2002
1409.219852	13749.0
1409.74846	13813.0
1410.277013	13704.59961
1410.80551	13747.0
1411.333952	13703.2002
1411.862339	13737.2002
1412.39067	13650.0
1412.918946	13693.59961
1413.447167	13691.40039
1413.975333	13624.2002
1414.503444	13667.40039
1415.031499	13793.0
1415.559499	13694.2002
1416.087444	13642.40039
1416.615333	13611.0
1417.143167	13604.40039
1417.670947	13653.0
1418.19867	13568.40039
1418.726339	13650.2002
1419.253952	13589.0
1419.781511	13581.7998
1420.309014	13568.40039
1420.836461	13621.0
1421.363854	13581.2002
1421.891191	13603.0
1422.418474	13598.40039
1422.945701	13602.40039
1423.472872	13561.59961
1423.999989	13541.0
1424.52705	13528.7998
1425.054057	13578.0
1425.581008	13598.59961
1426.107904	13576.0
1426.634745	13629.59961
1427.16153	13578.0
1427.688261	13544.0
1428.214936	13571.59961
1428.741556	13572.59961
1429.268121	13543.2002
1429.794631	13564.7998
1430.321085	13465.2002
1430.847485	13512.0
1431.373829	13475.7998
1431.900118	13455.7998
1432.426353	13474.59961
1432.952532	13473.59961
1433.478655	13542.7998
1434.004724	13444.2002
1434.530738	13429.2002
1435.056696	13421.40039
1435.5826	13403.40039
1436.108448	13433.59961
1436.634241	13438.7998
1437.159979	13389.59961
1437.685662	13381.59961
1438.21129	13451.0
1438.736863	13329.40039
1439.262381	13363.40039
1439.787843	13441.40039
1440.313251	13332.7998
1440.838603	13361.0
1441.3639	13357.0
1441.889143	13340.2002
1442.41433	13309.0
1442.939462	13306.2002
1443.464539	13316.2002
1443.989561	13279.7998
1444.514528	13275.2002
1445.03944	13274.2002
1445.564297	13274.0
1446.089099	13253.0
1446.613846	13290.40039
1447.138537	13257.0
1447.663174	13245.40039
1448.187756	13260.7998
1448.712282	13276.0
1449.236754	13239.40039
1449.761171	13214.0
1450.285532	13243.0
1450.809839	13273.59961
1451.33409	13212.59961
1451.858287	13196.59961
1452.382428	13156.0
1452.906515	13132.40039
1453.430546	13163.40039
1453.954523	13143.2002
1454.478444	13183.0
1455.002311	13207.59961
1455.526123	13189.40039
1456.049879	13134.59961
1456.573581	13202.59961
1457.097227	13135.59961
1457.620819	13123.59961
1458.144356	13163.2002
1458.667837	13119.7998
1459.191264	13100.0
1459.714636	13137.40039
1460.237952	13075.0
1460.761214	13091.7998
1461.284421	13077.2002
1461.807573	13043.2002
1462.33067	13079.7998
1462.853712	13033.2002
1463.376699	13031.59961
1463.899632	13060.2002
1464.422509	13046.59961
1464.945331	13040.40039
1465.468099	12973.2002
1465.990811	13047.0
1466.513469	12987.59961
1467.036071	13073.0
1467.558619	12948.2002
1468.081112	12986.59961
1468.60355	13016.40039
1469.125933	12958.0
1469.648261	12972.59961
1470.170534	13010.2002
1470.692752	12889.7998
1471.214916	12960.0
1471.737024	12916.2002
1472.259078	12922.7998
1472.781077	12975.0
1473.303021	12894.40039
1473.82491	12945.7998
1474.346744	12865.7998
1474.868523	12895.0
1475.390248	12931.59961
1475.911917	12884.7998
1476.433532	12845.59961
1476.955092	12938.59961
1477.476597	12776.2002
1477.998047	12861.59961
1478.519442	12788.7998
1479.040783	12800.59961
1479.562068	12807.0
1480.083299	12838.0
1480.604475	12806.59961
1481.125596	12862.59961
1481.646663	12767.40039
1482.167674	12768.7998
1482.688631	12814.40039
1483.209533	12765.0
1483.73038	12758.0
1484.251172	12752.40039
1484.771909	12724.0
1485.292592	12722.40039
1485.81322	12755.7998
1486.333793	12653.40039
1486.854311	12717.59961
1487.374775	12674.0
1487.895183	12692.40039
1488.415537	12651.59961
1488.935836	12575.40039
1489.456081	12670.0
1489.97627	12639.2002
1490.496405	12695.0
1491.016485	12618.40039
1491.536511	12634.0
1492.056481	12604.40039
1492.576397	12633.2002
1493.096258	12623.0
1493.616064	12619.40039
1494.135816	12546.59961
1494.655513	12613.2002
1495.175155	12593.0
1495.694742	12526.0
1496.214274	12509.7998
1496.733752	12536.7998
1497.253175	12649.7998
1497.772544	12551.0
1498.291858	12564.0
1498.811116	12541.59961
1499.330321	12556.0
1499.84947	12559.0
1500.368565	12479.2002
1500.887605	12504.59961
1501.406591	12521.2002
1501.925521	12500.7998
1502.444397	12437.7998
1502.963219	12500.59961
1503.481985	12476.7998
1504.000697	12507.7998
1504.519355	12505.59961
1505.037957	12453.2002
1505.556505	12458.40039
1506.074999	12470.2002
1506.593437	12405.59961
1507.111821	12464.40039
1507.63015	12464.0
1508.148425	12430.0
1508.666645	12446.0
1509.18481	12349.7998
1509.702921	12361.40039
1510.220977	12343.7998
1510.738979	12396.0
1511.256925	12406.0
1511.774817	12407.2002
1512.292655	12333.7998
1512.810438	12372.40039
1513.328166	12340.2002
1513.84584	12326.7998
1514.363459	12312.40039
1514.881023	12381.59961
1515.398533	12345.0
1515.915988	12366.7998
1516.433389	12301.7998
1516.950734	12328.40039
1517.468026	12321.59961
1517.985263	12280.0
1518.502445	12277.7998
1519.019572	12348.7998
1519.536645	12303.59961
1520.053664	12327.59961
1520.570628	12309.2002
1521.087537	12278.2002
1521.604392	12323.40039
1522.121192	12239.7998
1522.637937	12273.2002
1523.154628	12297.7998
1523.671265	12265.59961
1524.187847	12263.2002
1524.704374	12257.7998
1525.220847	12301.40039
1525.737265	12285.7998
1526.253629	12305.59961
1526.769938	12228.40039
1527.286192	12224.0
1527.802392	12215.2002
1528.318538	12298.7998
1528.834629	12256.0
1529.350666	12249.7998
1529.866648	12228.40039
1530.382575	12208.40039
1530.898448	12296.2002
1531.414266	12220.0
1531.93003	12278.7998
1532.44574	12225.40039
1532.961395	12207.2002
1533.476995	12242.59961
1533.992541	12178.7998
1534.508033	12208.59961
1535.02347	12196.59961
1535.538852	12185.0
1536.05418	12211.0
1536.569454	12155.0
1537.084673	12115.2002
1537.599837	12218.7998
1538.114947	12184.0
1538.630003	12133.40039
1539.145004	12179.59961
1539.659951	12184.40039
1540.174843	12185.0
1540.689681	12161.2002
1541.204465	12171.2002
1541.719194	12162.7998
1542.233868	12187.40039
1542.748488	12148.0
1543.263054	12159.7998
1543.777565	12098.7998
1544.292022	12130.7998
1544.806424	12089.59961
1545.320772	12121.59961
1545.835066	12130.7998
1546.349305	12108.2002
1546.863489	12150.40039
1547.37762	12164.40039
1547.891696	12163.2002
1548.405717	12075.2002
1548.919684	12058.7998
1549.433597	12101.0
1549.947455	12152.7998
1550.461259	12072.7998
1550.975009	12130.2002
1551.488704	12145.40039
1552.002345	12094.7998
1552.515931	12080.7998
1553.029463	12068.40039
1553.542941	12139.0
1554.056364	12071.40039
1554.569733	12077.0
1555.083048	12075.7998
1555.596308	12135.0
1556.109514	12068.40039
1556.622665	12079.59961
1557.135762	12027.7998
1557.648805	12043.40039
1558.161794	12086.0
1558.674728	12039.0
1559.187608	12072.0
1559.700433	12018.0
1560.213205	12006.40039
1560.725921	12026.2002
1561.238584	12054.59961
1561.751192	12066.2002
1562.263746	12021.0
1562.776246	12068.40039
1563.288691	11958.7998
1563.801082	12041.2002
1564.313419	11943.59961
1564.825701	12022.2002
1565.337929	11939.40039
1565.850103	12004.2002
1566.362223	11921.2002
1566.874288	12001.40039
1567.386299	12004.2002
1567.898256	11999.2002
1568.410158	11931.40039
1568.922007	11878.7998
1569.4338	11966.0
1569.94554	11870.40039
1570.457226	12056.59961
1570.968857	11975.0
1571.480434	11989.0
1571.991956	11939.7998
1572.503425	12024.7998
1573.014839	11899.40039
1573.526199	11957.7998
1574.037505	11960.0
1574.548756	11869.2002
1575.059953	12010.59961
1575.571096	11890.7998
1576.082185	11970.7998
1576.59322	11880.0
1577.1042	11933.2002
1577.615126	11855.40039
1578.125998	11937.59961
1578.636816	11897.59961
1579.14758	11837.59961
1579.658289	11924.59961
1580.168944	11828.7998
1580.679545	11906.59961
1581.190092	11772.7998
1581.700585	11883.7998
1582.211023	11777.59961
1582.721407	11855.7998
1583.231737	11815.7998
1583.742013	11758.2002
1584.252235	11760.59961
1584.762403	11798.0
1585.272516	11851.2002
1585.782575	11757.0
1586.292581	11831.7998
1586.802532	11741.59961
1587.312428	11931.59961
1587.822271	11798.7998
1588.33206	11851.7998
1588.841794	11782.59961
1589.351474	11707.2002
1589.8611	11722.7998
1590.370672	11761.59961
1590.88019	11802.40039
1591.389654	11717.59961
1591.899064	11791.59961
