1042.452273	688.7999878
1043.018714	687.2000122
1043.585098	686.0
1044.151424	682.7999878
1044.717692	683.2000122
1045.283903	684.2000122
1045.850056	682.0
1046.416151	680.7999878
1046.982188	681.0
1047.548167	683.0
1048.114089	678.4000244
1048.679953	678.7999878
1049.24576	678.0
1049.811509	678.4000244
1050.3772	677.7999878
1050.942833	678.2000122
1051.508408	677.7999878
1052.073926	675.7999878
1052.639387	674.7999878
1053.204789	677.0
1053.770134	674.5999756
1054.335421	676.7999878
1054.900651	674.4000244
1055.465823	672.5999756
1056.030937	676.2000122
1056.595993	674.4000244
1057.160992	676.5999756
1057.725934	675.0
1058.290817	672.0
1058.855643	671.0
1059.420411	673.0
1059.985122	672.4000244
1060.549775	671.0
1061.114371	672.7999878
1061.678908	676.2000122
1062.243389	674.0
1062.807811	670.0
1063.372176	670.4000244
1063.936483	670.4000244
1064.500733	671.4000244
1065.064925	667.2000122
1065.62906	671.5999756
1066.193137	675.0
1066.757156	675.7999878
1067.321118	671.5999756
1067.885022	670.4000244
1068.448869	674.5999756
1069.012658	671.7999878
1069.57639	671.4000244
1070.140063	680.4000244
1070.70368	668.5999756
1071.267239	669.0
1071.83074	671.0
1072.394184	671.2000122
1072.95757	672.4000244
1073.520899	671.7999878
1074.08417	670.4000244
1074.647383	668.0
1075.21054	669.2000122
1075.773638	673.4000244
1076.336679	669.4000244
1076.899663	672.0
1077.462589	670.7999878
1078.025457	670.7999878
1078.588268	671.4000244
1079.151022	670.2000122
1079.713718	670.0
1080.276356	670.2000122
1080.838937	672.4000244
1081.401461	670.5999756
1081.963927	672.4000244
1082.526336	670.0
1083.088687	671.4000244
1083.650981	671.7999878
1084.213217	673.2000122
1084.775396	668.2000122
1085.337517	670.0
1085.899581	668.4000244
1086.461587	668.5999756
1087.023536	667.7999878
1087.585428	668.7999878
1088.147262	670.5999756
1088.709039	671.0
1089.270758	669.5999756
1089.83242	672.7999878
1090.394024	669.7999878
1090.955571	668.2000122
1091.517061	669.5999756
1092.078493	672.5999756
1092.639868	670.7999878
1093.201185	668.4000244
1093.762445	669.4000244
1094.323648	668.2000122
1094.884793	669.4000244
1095.445881	670.2000122
1096.006911	668.2000122
1096.567884	669.4000244
1097.1288	677.0
1097.689659	670.2000122
1098.25046	670.0
1098.811203	670.0
1099.37189	668.0
1099.932518	666.7999878
1100.49309	669.0
1101.053604	667.4000244
1101.614061	669.2000122
1102.174461	668.5999756
1102.734803	669.7999878
1103.295088	671.4000244
1103.855316	671.0
1104.415486	669.7999878
1104.975599	669.0
1105.535655	670.2000122
1106.095653	668.7999878
1106.655594	668.7999878
1107.215478	669.5999756
1107.775305	668.7999878
1108.335074	670.7999878
1108.894786	665.4000244
1109.45444	671.2000122
1110.014038	670.0
1110.573578	671.2000122
1111.133061	671.7999878
1111.692486	668.2000122
1112.251854	669.7999878
1112.811165	668.0
1113.370419	667.0
1113.929616	668.2000122
1114.488755	669.4000244
1115.047837	670.4000244
1115.606862	666.7999878
1116.16583	669.0
1116.72474	668.2000122
1117.283593	670.2000122
1117.842389	669.0
1118.401128	671.2000122
1118.959809	669.4000244
1119.518433	670.4000244
1120.077	669.0
1120.63551	666.7999878
1121.193963	666.5999756
1121.752358	668.5999756
1122.310697	668.0
1122.868978	669.4000244
1123.427202	670.0
1123.985368	669.2000122
1124.543478	668.0
1125.10153	667.0
1125.659526	666.5999756
1126.217464	670.7999878
1126.775345	668.2000122
1127.333168	668.7999878
1127.890935	665.5999756
1128.448644	670.0
1129.006297	667.5999756
1129.563892	669.4000244
1130.12143	666.7999878
1130.678911	670.5999756
1131.236335	667.5999756
1131.793701	665.2000122
1132.351011	668.0
1132.908263	669.5999756
1133.465458	669.0
1134.022597	668.4000244
1134.579678	669.0
1135.136702	669.2000122
1135.693669	666.7999878
1136.250578	671.2000122
1136.807431	671.4000244
1137.364227	667.0
1137.920965	668.4000244
1138.477647	668.4000244
1139.034271	668.7999878
1139.590839	670.2000122
1140.147349	670.4000244
1140.703802	666.0
1141.260198	667.2000122
1141.816537	668.2000122
1142.37282	668.0
1142.929045	667.4000244
1143.485213	669.4000244
1144.041323	669.2000122
1144.597377	666.0
1145.153374	669.4000244
1145.709314	670.4000244
1146.265197	666.7999878
1146.821023	669.2000122
1147.376792	667.7999878
1147.932503	667.4000244
1148.488158	667.5999756
1149.043756	669.2000122
1149.599297	671.5999756
1150.154781	670.2000122
1150.710207	670.0
1151.265577	669.7999878
1151.82089	669.4000244
1152.376146	667.4000244
1152.931345	670.0
1153.486487	667.7999878
1154.041572	668.7999878
1154.5966	667.7999878
1155.151571	668.2000122
1155.706485	671.0
1156.261342	669.0
1156.816142	667.0
1157.370885	666.5999756
1157.925572	668.7999878
1158.480201	668.2000122
1159.034774	668.4000244
1159.589289	668.5999756
1160.143748	667.2000122
1160.698149	664.7999878
1161.252494	671.7999878
1161.806782	665.5999756
1162.361013	666.7999878
1162.915187	666.7999878
1163.469304	668.4000244
1164.023364	669.2000122
1164.577368	667.4000244
1165.131314	670.5999756
1165.685204	669.4000244
1166.239036	669.2000122
1166.792812	667.0
1167.346531	667.7999878
1167.900193	667.5999756
1168.453798	667.0
1169.007347	671.4000244
1169.560838	668.5999756
1170.114273	667.5999756
1170.66765	669.0
1171.220971	669.0
1171.774235	669.0
1172.327443	664.5999756
1172.880593	668.5999756
1173.433687	668.0
1173.986723	673.0
1174.539703	669.4000244
1175.092626	665.7999878
1175.645493	668.5999756
1176.198302	669.0
1176.751055	666.7999878
1177.303751	668.5999756
1177.85639	667.4000244
1178.408972	669.7999878
1178.961498	668.2000122
1179.513966	667.4000244
1180.066378	668.5999756
1180.618733	664.5999756
1181.171032	665.5999756
1181.723273	666.5999756
1182.275458	668.2000122
1182.827586	666.7999878
1183.379657	670.4000244
1183.931672	668.0
1184.48363	668.4000244
1185.035531	666.4000244
1185.587375	667.2000122
1186.139162	666.7999878
1186.690893	668.7999878
1187.242567	667.4000244
1187.794184	667.0
1188.345745	670.2000122
1188.897249	667.7999878
1189.448696	666.2000122
1190.000086	663.7999878
1190.55142	668.4000244
1191.102697	671.4000244
1191.653918	667.4000244
1192.205081	670.0
1192.756188	670.0
1193.307238	683.4000244
1193.858232	668.2000122
1194.409169	667.4000244
1194.960049	664.5999756
1195.510872	666.2000122
1196.061639	668.0
1196.612349	670.0
1197.163003	667.2000122
1197.713599	669.0
1198.264139	669.5999756
1198.814623	666.0
1199.36505	667.0
1199.91542	667.4000244
1200.465734	667.7999878
1201.01599	664.7999878
1201.566191	665.0
1202.116334	670.2000122
1202.666421	668.0
1203.216452	668.5999756
1203.766425	669.4000244
1204.316343	667.4000244
1204.866203	668.4000244
1205.416007	668.5999756
1205.965754	668.4000244
1206.515445	668.0
1207.065079	667.5999756
1207.614657	671.2000122
1208.164177	669.0
1208.713642	671.5999756
1209.26305	667.0
1209.812401	666.4000244
1210.361695	669.7999878
1210.910933	670.0
1211.460115	670.7999878
1212.00924	671.0
1212.558308	668.0
1213.10732	669.2000122
1213.656275	668.2000122
1214.205174	669.7999878
1214.754016	672.0
1215.302801	667.7999878
1215.85153	670.2000122
1216.400203	669.0
1216.948819	668.7999878
1217.497378	670.5999756
1218.045881	665.5999756
1218.594327	672.4000244
1219.142717	670.4000244
1219.691051	669.2000122
1220.239327	670.0
1220.787548	670.0
1221.335712	669.7999878
1221.883819	674.0
1222.43187	670.0
1222.979864	668.5999756
1223.527802	669.7999878
1224.075683	668.7999878
1224.623508	672.0
1225.171277	669.7999878
1225.718989	672.5999756
1226.266644	671.2000122
1226.814243	670.2000122
1227.361786	669.0
1227.909272	667.2000122
1228.456702	671.4000244
1229.004075	669.4000244
1229.551392	671.7999878
1230.098652	670.4000244
1230.645856	669.5999756
1231.193003	673.2000122
1231.740094	671.0
1232.287129	673.5999756
1232.834107	671.0
1233.381029	670.7999878
1233.927894	670.7999878
1234.474703	670.7999878
1235.021455	671.2000122
1235.568151	670.7999878
1236.114791	670.2000122
1236.661374	672.4000244
1237.207901	674.0
1237.754372	670.4000244
1238.300786	674.4000244
1238.847144	673.7999878
1239.393445	671.2000122
1239.93969	671.0
1240.485879	672.7999878
1241.032011	673.0
1241.578087	675.4000244
1242.124106	671.5999756
1242.67007	675.7999878
1243.215976	672.4000244
1243.761827	674.0
1244.307621	674.5999756
1244.853359	674.5999756
1245.39904	675.7999878
1245.944665	675.7999878
1246.490234	674.4000244
1247.035746	672.4000244
1247.581203	674.2000122
1248.126602	676.7999878
1248.671946	676.7999878
1249.217233	679.4000244
1249.762464	679.2000122
1250.307638	680.5999756
1250.852757	678.2000122
1251.397819	676.7999878
1251.942824	674.5999756
1252.487774	677.0
1253.032667	678.7999878
1253.577503	675.0
1254.122284	677.2000122
1254.667008	675.4000244
1255.211676	673.7999878
1255.756288	676.2000122
1256.300843	675.4000244
1256.845342	675.7999878
1257.389785	680.2000122
1257.934172	682.0
1258.478502	681.0
1259.022776	687.0
1259.566994	687.0
1260.111156	688.4000244
1260.655261	682.2000122
1261.199311	681.4000244
1261.743304	681.4000244
1262.28724	689.5999756
1262.831121	697.4000244
1263.374945	707.2000122
1263.918713	721.2000122
1264.462425	771.2000122
1265.006081	804.7999878
1265.54968	780.7999878
1266.093223	724.7999878
1266.636711	699.5999756
1267.180141	692.0
1267.723516	687.2000122
1268.266835	682.0
1268.810097	680.4000244
1269.353303	683.2000122
1269.896453	682.2000122
1270.439547	679.7999878
1270.982584	680.7999878
1271.525566	681.5999756
1272.068491	682.0
1272.61136	679.4000244
1273.154173	681.0
1273.69693	684.0
1274.239631	680.7999878
1274.782275	683.2000122
1275.324864	681.5999756
1275.867396	677.7999878
1276.409872	681.7999878
1276.952292	683.0
1277.494656	680.2000122
1278.036964	680.7999878
1278.579215	687.4000244
1279.121411	686.0
1279.66355	687.4000244
1280.205634	690.2000122
1280.747661	694.5999756
1281.289632	696.0
1281.831547	697.0
1282.373406	717.0
1282.915209	744.5999756
1283.456955	799.5999756
1283.998646	963.0
1284.540281	1477.599976
1285.081859	2521.800049
1285.623381	2239.0
1286.164848	1199.800049
1286.706258	847.0
1287.247612	765.0
1287.788911	719.5999756
1288.330153	709.7999878
1288.871339	701.0
1289.412469	696.5999756
1289.953543	694.5999756
1290.494561	689.7999878
1291.035523	684.5999756
1291.576428	684.5999756
1292.117278	684.0
1292.658072	683.4000244
1293.19881	681.0
1293.739492	678.4000244
1294.280118	681.5999756
1294.820687	679.0
1295.361201	680.7999878
1295.901659	681.0
1296.442061	680.0
1296.982406	678.7999878
1297.522696	678.5999756
1298.06293	678.4000244
1298.603108	679.5999756
1299.143229	678.2000122
1299.683295	679.5999756
1300.223305	679.5999756
1300.763259	677.4000244
1301.303157	675.4000244
1301.842999	678.2000122
1302.382785	677.7999878
1302.922515	679.7999878
1303.462189	679.0
1304.001807	676.2000122
1304.541369	675.7999878
1305.080875	680.2000122
1305.620326	676.5999756
1306.15972	675.0
1306.699058	674.2000122
1307.238341	677.4000244
1307.777567	676.7999878
1308.316738	676.4000244
1308.855853	677.2000122
1309.394912	673.2000122
1309.933915	678.4000244
1310.472862	677.7999878
1311.011753	674.0
1311.550588	678.7999878
1312.089367	676.0
1312.62809	673.7999878
1313.166758	678.7999878
1313.70537	676.4000244
1314.243925	674.7999878
1314.782425	674.4000244
1315.320869	675.5999756
1315.859257	679.4000244
1316.397589	678.0
1316.935866	675.7999878
1317.474086	674.0
1318.012251	677.5999756
1318.55036	677.4000244
1319.088413	674.4000244
1319.62641	678.7999878
1320.164351	676.5999756
1320.702236	680.7999878
1321.240066	677.2000122
1321.777839	677.2000122
1322.315557	677.0
1322.853219	673.2000122
1323.390826	675.0
1323.928376	678.5999756
1324.465871	676.4000244
1325.003309	677.7999878
1325.540692	675.7999878
1326.07802	678.2000122
1326.615291	675.4000244
1327.152506	673.5999756
1327.689666	677.7999878
1328.22677	680.5999756
1328.763818	675.2000122
1329.300811	671.0
1329.837747	675.7999878
1330.374628	676.4000244
1330.911453	676.5999756
1331.448222	674.0
1331.984936	676.2000122
1332.521594	677.2000122
1333.058196	676.2000122
1333.594742	676.5999756
1334.131232	678.0
1334.667667	676.0
1335.204046	673.4000244
1335.740369	673.5999756
1336.276637	674.5999756
1336.812848	673.4000244
1337.349004	677.2000122
1337.885105	675.0
1338.421149	674.0
1338.957138	673.7999878
1339.493071	680.0
1340.028949	676.7999878
1340.56477	675.0
1341.100536	677.2000122
1341.636246	677.4000244
1342.171901	677.2000122
1342.7075	677.0
1343.243043	673.0
1343.77853	677.7999878
1344.313962	679.0
1344.849338	676.5999756
1345.384659	677.0
1345.919923	676.4000244
1346.455133	676.4000244
1346.990286	674.5999756
1347.525384	677.7999878
1348.060426	677.7999878
1348.595412	673.4000244
1349.130343	672.0
1349.665218	675.0
1350.200037	677.0
1350.734801	674.2000122
1351.269509	675.5999756
1351.804162	677.0
1352.338758	679.0
1352.8733	674.0
1353.407785	676.0
1353.942215	677.4000244
1354.476589	676.5999756
1355.010908	677.7999878
1355.545171	678.5999756
1356.079379	672.7999878
1356.61353	675.7999878
1357.147627	677.2000122
1357.681667	676.5999756
1358.215652	677.2000122
1358.749582	678.0
1359.283456	677.4000244
1359.817274	678.7999878
1360.351037	678.4000244
1360.884744	677.0
1361.418395	680.0
1361.951991	675.0
1362.485531	678.5999756
1363.019016	678.5999756
1363.552445	679.7999878
1364.085819	678.4000244
1364.619137	678.2000122
1365.1524	679.0
1365.685607	680.4000244
1366.218758	687.4000244
1366.751854	683.4000244
1367.284894	680.7999878
1367.817879	681.0
1368.350808	678.7999878
1368.883682	683.0
1369.4165	687.7999878
1369.949263	710.5999756
1370.48197	739.2000122
1371.014622	698.7999878
1371.547218	683.5999756
1372.079758	678.7999878
1372.612244	680.5999756
1373.144673	680.5999756
1373.677047	681.0
1374.209366	680.7999878
1374.741629	680.0
1375.273836	680.0
1375.805989	683.0
1376.338085	682.2000122
1376.870126	684.5999756
1377.402112	681.4000244
1377.934042	683.2000122
1378.465917	683.2000122
1378.997736	683.7999878
1379.5295	682.5999756
1380.061208	686.0
1380.592861	686.2000122
1381.124459	683.7999878
1381.656	688.7999878
1382.187487	690.4000244
1382.718918	691.7999878
1383.250294	696.7999878
1383.781614	699.7999878
1384.312879	701.5999756
1384.844088	713.2000122
1385.375242	720.0
1385.90634	747.2000122
1386.437383	781.0
1386.968371	837.4000244
1387.499303	1086.400024
1388.03018	2154.199951
1388.561001	4173.200195
1389.091767	2870.399902
1389.622478	1229.599976
1390.153133	855.7999878
1390.683733	768.7999878
1391.214277	737.2000122
1391.744766	713.0
1392.2752	702.0
1392.805578	699.2000122
1393.335901	694.7999878
1393.866168	693.7999878
1394.396381	691.4000244
1394.926537	685.7999878
1395.456639	687.7999878
1395.986685	687.0
1396.516675	687.2000122
1397.046611	684.5999756
1397.576491	683.5999756
1398.106315	682.2000122
1398.636084	683.0
1399.165798	681.4000244
1399.695457	678.5999756
1400.22506	682.4000244
1400.754608	682.7999878
1401.284101	680.4000244
1401.813538	683.5999756
1402.34292	681.7999878
1402.872247	681.5999756
1403.401518	683.7999878
1403.930734	681.7999878
1404.459895	682.4000244
1404.989	684.5999756
1405.51805	682.2000122
1406.047045	685.4000244
1406.575984	689.2000122
1407.104869	690.7999878
1407.633697	695.7999878
1408.162471	709.0
1408.691189	724.7999878
1409.219852	791.0
1409.74846	911.2000122
1410.277013	915.2000122
1410.80551	789.0
1411.333952	723.0
1411.862339	697.5999756
1412.39067	688.5999756
1412.918946	684.5999756
1413.447167	681.0
1413.975333	679.0
1414.503444	683.4000244
1415.031499	680.7999878
1415.559499	687.4000244
1416.087444	675.2000122
1416.615333	673.4000244
1417.143167	676.0
1417.670947	678.2000122
1418.19867	672.0
1418.726339	677.2000122
1419.253952	677.5999756
1419.781511	676.2000122
1420.309014	676.4000244
1420.836461	675.7999878
1421.363854	677.4000244
1421.891191	674.7999878
1422.418474	677.5999756
1422.945701	677.5999756
1423.472872	676.7999878
1423.999989	675.7999878
1424.52705	677.7999878
1425.054057	680.2000122
1425.581008	682.4000244
1426.107904	679.4000244
1426.634745	684.7999878
1427.16153	678.2000122
1427.688261	672.5999756
1428.214936	670.5999756
1428.741556	672.4000244
1429.268121	674.2000122
1429.794631	674.5999756
1430.321085	672.2000122
1430.847485	673.2000122
1431.373829	673.0
1431.900118	672.0
1432.426353	673.4000244
1432.952532	671.5999756
1433.478655	670.2000122
1434.004724	672.7999878
1434.530738	671.5999756
1435.056696	676.0
1435.5826	670.4000244
1436.108448	670.4000244
1436.634241	669.5999756
1437.159979	671.4000244
1437.685662	669.4000244
1438.21129	671.7999878
1438.736863	670.5999756
1439.262381	668.5999756
1439.787843	672.5999756
1440.313251	668.5999756
1440.838603	671.2000122
1441.3639	667.0
1441.889143	671.4000244
1442.41433	669.0
1442.939462	669.7999878
1443.464539	669.2000122
1443.989561	669.4000244
1444.514528	668.4000244
1445.03944	668.4000244
1445.564297	669.4000244
1446.089099	670.7999878
1446.613846	669.2000122
1447.138537	670.0
1447.663174	671.5999756
1448.187756	667.5999756
1448.712282	666.5999756
1449.236754	668.2000122
1449.761171	665.5999756
1450.285532	667.5999756
1450.809839	665.4000244
1451.33409	667.7999878
1451.858287	666.7999878
1452.382428	668.4000244
1452.906515	667.5999756
1453.430546	668.4000244
1453.954523	668.7999878
1454.478444	665.2000122
1455.002311	666.4000244
1455.526123	668.2000122
1456.049879	665.0
1456.573581	664.4000244
1457.097227	665.5999756
1457.620819	667.2000122
1458.144356	668.0
1458.667837	666.4000244
1459.191264	664.2000122
1459.714636	668.4000244
1460.237952	666.0
1460.761214	663.0
1461.284421	667.4000244
1461.807573	667.4000244
1462.33067	667.2000122
1462.853712	665.4000244
1463.376699	665.5999756
1463.899632	667.0
1464.422509	664.7999878
1464.945331	664.0
1465.468099	666.4000244
1465.990811	667.0
1466.513469	667.7999878
1467.036071	666.0
1467.558619	662.5999756
1468.081112	667.0
1468.60355	665.0
1469.125933	666.7999878
1469.648261	664.4000244
1470.170534	665.2000122
1470.692752	665.7999878
1471.214916	663.5999756
1471.737024	662.5999756
1472.259078	667.7999878
1472.781077	664.5999756
1473.303021	664.4000244
1473.82491	668.5999756
1474.346744	665.4000244
1474.868523	663.4000244
1475.390248	664.2000122
1475.911917	664.7999878
1476.433532	665.0
1476.955092	668.2000122
1477.476597	662.7999878
1477.998047	666.0
1478.519442	663.4000244
1479.040783	666.0
1479.562068	664.5999756
1480.083299	664.5999756
1480.604475	665.4000244
1481.125596	666.4000244
1481.646663	665.2000122
1482.167674	663.0
1482.688631	664.7999878
1483.209533	664.2000122
1483.73038	666.5999756
1484.251172	662.7999878
1484.771909	666.0
1485.292592	664.4000244
1485.81322	665.0
1486.333793	666.4000244
1486.854311	661.5999756
1487.374775	666.0
1487.895183	662.2000122
1488.415537	662.7999878
1488.935836	664.4000244
1489.456081	665.5999756
1489.97627	663.2000122
1490.496405	662.4000244
1491.016485	665.2000122
1491.536511	661.4000244
1492.056481	665.2000122
1492.576397	661.0
1493.096258	663.5999756
1493.616064	665.4000244
1494.135816	661.5999756
1494.655513	663.0
1495.175155	665.5999756
1495.694742	663.4000244
1496.214274	666.0
1496.733752	664.7999878
1497.253175	664.7999878
1497.772544	663.5999756
1498.291858	664.4000244
1498.811116	664.7999878
1499.330321	665.5999756
1499.84947	672.4000244
1500.368565	663.7999878
1500.887605	663.4000244
1501.406591	664.0
1501.925521	664.5999756
1502.444397	666.4000244
1502.963219	663.7999878
1503.481985	665.7999878
1504.000697	662.4000244
1504.519355	660.7999878
1505.037957	664.2000122
1505.556505	661.7999878
1506.074999	665.0
1506.593437	665.0
1507.111821	662.5999756
1507.63015	662.4000244
1508.148425	663.2000122
1508.666645	662.5999756
1509.18481	663.5999756
1509.702921	661.4000244
1510.220977	664.0
1510.738979	670.0
1511.256925	663.5999756
1511.774817	662.2000122
1512.292655	666.7999878
1512.810438	663.4000244
1513.328166	664.4000244
1513.84584	664.4000244
1514.363459	663.0
1514.881023	662.4000244
1515.398533	664.2000122
1515.915988	664.0
1516.433389	662.4000244
1516.950734	664.0
1517.468026	664.4000244
1517.985263	662.4000244
1518.502445	665.0
1519.019572	662.7999878
1519.536645	661.5999756
1520.053664	665.2000122
1520.570628	665.0
1521.087537	664.0
1521.604392	665.5999756
1522.121192	666.4000244
1522.637937	664.7999878
1523.154628	662.4000244
1523.671265	661.5999756
1524.187847	661.7999878
1524.704374	662.5999756
1525.220847	662.7999878
1525.737265	663.7999878
1526.253629	664.4000244
1526.769938	664.5999756
1527.286192	663.0
1527.802392	663.0
1528.318538	666.2000122
1528.834629	662.7999878
1529.350666	665.2000122
1529.866648	663.5999756
1530.382575	662.7999878
1530.898448	662.5999756
1531.414266	663.2000122
1531.93003	663.7999878
1532.44574	662.2000122
1532.961395	662.2000122
1533.476995	660.7999878
1533.992541	664.7999878
1534.508033	663.2000122
1535.02347	663.2000122
1535.538852	661.7999878
1536.05418	664.7999878
1536.569454	665.0
1537.084673	664.5999756
1537.599837	663.4000244
1538.114947	661.5999756
1538.630003	665.5999756
1539.145004	662.5999756
1539.659951	665.2000122
1540.174843	663.2000122
1540.689681	662.2000122
1541.204465	664.0
1541.719194	662.7999878
1542.233868	662.4000244
1542.748488	661.5999756
1544.292022	662.5999756
1544.806424	662.4000244
1545.320772	662.7999878
1545.835066	662.2000122
1546.349305	664.4000244
1546.863489	663.0
1547.37762	663.5999756
1547.891696	664.7999878
1548.405717	662.0
1548.919684	663.2000122
1549.433597	664.2000122
1549.947455	662.5999756
1550.461259	666.2000122
1550.975009	665.4000244
1551.488704	664.0
1552.002345	663.0
1552.515931	663.7999878
1553.029463	660.4000244
1553.542941	660.7999878
1554.056364	663.5999756
1554.569733	660.5999756
1555.083048	663.0
1555.596308	665.7999878
1556.109514	660.5999756
1556.622665	664.4000244
1557.135762	662.0
1557.648805	663.7999878
1558.161794	662.5999756
1558.674728	665.0
1559.187608	663.0
1559.700433	665.0
1560.213205	664.2000122
1560.725921	663.7999878
1561.238584	663.7999878
1561.751192	663.7999878
1562.263746	664.5999756
1562.776246	664.4000244
1563.288691	661.7999878
1563.801082	664.7999878
1564.313419	663.5999756
1564.825701	663.5999756
1565.337929	661.0
1565.850103	662.7999878
1566.362223	665.5999756
1566.874288	661.5999756
1567.386299	662.7999878
1567.898256	664.4000244
1568.410158	664.2000122
1568.922007	661.0
1569.4338	663.0
1569.94554	662.7999878
1570.457226	665.0
1570.968857	665.0
1571.480434	665.0
1571.991956	664.5999756
1572.503425	665.4000244
1573.014839	662.2000122
1573.526199	664.7999878
1574.037505	662.2000122
1574.548756	660.5999756
1575.059953	663.0
1575.571096	665.2000122
1576.082185	661.4000244
1576.59322	662.2000122
1577.1042	665.4000244
1577.615126	664.7999878
1578.125998	662.7999878
1578.636816	664.2000122
1579.14758	665.4000244
1579.658289	664.7999878
1580.168944	660.0
1580.679545	664.2000122
1581.190092	661.4000244
1581.700585	662.4000244
1582.211023	662.4000244
1582.721407	661.4000244
1583.231737	664.5999756
1583.742013	663.2000122
1584.252235	662.2000122
1584.762403	666.4000244
1585.272516	664.2000122
1585.782575	662.2000122
1586.292581	662.7999878
1586.802532	662.5999756
1587.312428	660.5999756
1587.822271	663.5999756
1588.33206	663.5999756
1588.841794	663.4000244
1589.351474	660.4000244
1589.8611	662.5999756
1590.370672	662.7999878
1590.88019	663.2000122
1591.389654	660.0
1591.899064	659.7999878
1592.408419	660.5999756
