 1.042452273E+03	 1.425379980E+04
 1.043018714E+03	 1.433840039E+04
 1.043585098E+03	 1.422900000E+04
 1.044151424E+03	 1.430879980E+04
 1.044717692E+03	 1.420720020E+04
 1.045283903E+03	 1.426940039E+04
 1.045850056E+03	 1.420740039E+04
 1.046416151E+03	 1.426300000E+04
 1.046982188E+03	 1.421240039E+04
 1.047548167E+03	 1.422720020E+04
 1.048114089E+03	 1.421200000E+04
 1.048679953E+03	 1.424620020E+04
 1.049245760E+03	 1.420879980E+04
 1.049811509E+03	 1.423200000E+04
 1.050377200E+03	 1.411979980E+04
 1.050942833E+03	 1.423800000E+04
 1.051508408E+03	 1.420579980E+04
 1.052073926E+03	 1.416979980E+04
 1.052639387E+03	 1.415920020E+04
 1.053204789E+03	 1.422940039E+04
 1.053770134E+03	 1.414959961E+04
 1.054335421E+03	 1.416440039E+04
 1.054900651E+03	 1.410379980E+04
 1.055465823E+03	 1.411340039E+04
 1.056030937E+03	 1.410840039E+04
 1.056595993E+03	 1.415879980E+04
 1.057160992E+03	 1.408540039E+04
 1.057725934E+03	 1.411100000E+04
 1.058290817E+03	 1.402259961E+04
 1.058855643E+03	 1.407579980E+04
 1.059420411E+03	 1.402540039E+04
 1.059985122E+03	 1.409020020E+04
 1.060549775E+03	 1.401040039E+04
 1.061114371E+03	 1.409500000E+04
 1.061678908E+03	 1.401740039E+04
 1.062243389E+03	 1.409359961E+04
 1.062807811E+03	 1.399059961E+04
 1.063372176E+03	 1.407240039E+04
 1.063936483E+03	 1.402859961E+04
 1.064500733E+03	 1.397720020E+04
 1.065064925E+03	 1.395379980E+04
 1.065629060E+03	 1.397059961E+04
 1.066193137E+03	 1.397000000E+04
 1.066757156E+03	 1.400320020E+04
 1.067321118E+03	 1.392340039E+04
 1.067885022E+03	 1.396359961E+04
 1.068448869E+03	 1.393620020E+04
 1.069012658E+03	 1.392279980E+04
 1.069576390E+03	 1.391120020E+04
 1.070140063E+03	 1.391540039E+04
 1.070703680E+03	 1.387879980E+04
 1.071267239E+03	 1.383500000E+04
 1.071830740E+03	 1.385020020E+04
 1.072394184E+03	 1.389000000E+04
 1.072957570E+03	 1.382940039E+04
 1.073520899E+03	 1.379159961E+04
 1.074084170E+03	 1.379500000E+04
 1.074647383E+03	 1.374479980E+04
 1.075210540E+03	 1.375240039E+04
 1.075773638E+03	 1.374540039E+04
 1.076336679E+03	 1.378020020E+04
 1.076899663E+03	 1.369079980E+04
 1.077462589E+03	 1.375559961E+04
 1.078025457E+03	 1.371959961E+04
 1.078588268E+03	 1.368700000E+04
 1.079151022E+03	 1.373120020E+04
 1.079713718E+03	 1.372179980E+04
 1.080276356E+03	 1.367759961E+04
 1.080838937E+03	 1.366440039E+04
 1.081401461E+03	 1.368720020E+04
 1.081963927E+03	 1.368040039E+04
 1.082526336E+03	 1.361300000E+04
 1.083088687E+03	 1.368259961E+04
 1.083650981E+03	 1.362179980E+04
 1.084213217E+03	 1.352959961E+04
 1.084775396E+03	 1.362240039E+04
 1.085337517E+03	 1.359440039E+04
 1.085899581E+03	 1.355759961E+04
 1.086461587E+03	 1.354940039E+04
 1.087023536E+03	 1.348759961E+04
 1.087585428E+03	 1.358820020E+04
 1.088147262E+03	 1.346940039E+04
 1.088709039E+03	 1.348640039E+04
 1.089270758E+03	 1.344740039E+04
 1.089832420E+03	 1.344620020E+04
 1.090394024E+03	 1.341400000E+04
 1.090955571E+03	 1.341820020E+04
 1.091517061E+03	 1.339159961E+04
 1.092078493E+03	 1.332540039E+04
 1.092639868E+03	 1.333159961E+04
 1.093201185E+03	 1.337920020E+04
 1.093762445E+03	 1.336859961E+04
 1.094323648E+03	 1.334940039E+04
 1.094884793E+03	 1.334220020E+04
 1.095445881E+03	 1.334759961E+04
 1.096006911E+03	 1.328540039E+04
 1.096567884E+03	 1.331720020E+04
 1.097128800E+03	 1.330659961E+04
 1.097689659E+03	 1.331840039E+04
 1.098250460E+03	 1.322440039E+04
 1.098811203E+03	 1.327479980E+04
 1.099371890E+03	 1.327759961E+04
 1.099932518E+03	 1.324540039E+04
 1.100493090E+03	 1.323020020E+04
 1.101053604E+03	 1.316740039E+04
 1.101614061E+03	 1.315100000E+04
 1.102174461E+03	 1.315740039E+04
 1.102734803E+03	 1.316259961E+04
 1.103295088E+03	 1.309720020E+04
 1.103855316E+03	 1.313359961E+04
 1.104415486E+03	 1.306000000E+04
 1.104975599E+03	 1.307079980E+04
 1.105535655E+03	 1.306779980E+04
 1.106095653E+03	 1.304040039E+04
 1.106655594E+03	 1.301640039E+04
 1.107215478E+03	 1.302779980E+04
 1.107775305E+03	 1.298420020E+04
 1.108335074E+03	 1.299459961E+04
 1.108894786E+03	 1.303479980E+04
 1.109454440E+03	 1.295679980E+04
 1.110014038E+03	 1.295279980E+04
 1.110573578E+03	 1.299940039E+04
 1.111133061E+03	 1.289620020E+04
 1.111692486E+03	 1.293820020E+04
 1.112251854E+03	 1.287340039E+04
 1.112811165E+03	 1.294379980E+04
 1.113370419E+03	 1.287940039E+04
 1.113929616E+03	 1.290740039E+04
 1.114488755E+03	 1.290940039E+04
 1.115047837E+03	 1.292620020E+04
 1.115606862E+03	 1.285259961E+04
 1.116165830E+03	 1.289500000E+04
 1.116724740E+03	 1.278740039E+04
 1.117283593E+03	 1.285559961E+04
 1.117842389E+03	 1.278420020E+04
 1.118401128E+03	 1.287459961E+04
 1.118959809E+03	 1.280179980E+04
 1.119518433E+03	 1.281420020E+04
 1.120077000E+03	 1.274679980E+04
 1.120635510E+03	 1.288059961E+04
 1.121193963E+03	 1.282100000E+04
 1.121752358E+03	 1.280979980E+04
 1.122310697E+03	 1.274979980E+04
 1.122868978E+03	 1.275659961E+04
 1.123427202E+03	 1.273679980E+04
 1.123985368E+03	 1.281479980E+04
 1.124543478E+03	 1.271059961E+04
 1.125101530E+03	 1.271700000E+04
 1.125659526E+03	 1.273200000E+04
 1.126217464E+03	 1.270400000E+04
 1.126775345E+03	 1.269179980E+04
 1.127333168E+03	 1.276879980E+04
 1.127890935E+03	 1.264920020E+04
 1.128448644E+03	 1.276059961E+04
 1.129006297E+03	 1.263920020E+04
 1.129563892E+03	 1.269620020E+04
 1.130121430E+03	 1.256300000E+04
 1.130678911E+03	 1.271320020E+04
 1.131236335E+03	 1.262920020E+04
 1.131793701E+03	 1.265400000E+04
 1.132351011E+03	 1.254879980E+04
 1.132908263E+03	 1.269000000E+04
 1.133465458E+03	 1.262000000E+04
 1.134022597E+03	 1.269400000E+04
 1.134579678E+03	 1.257520020E+04
 1.135136702E+03	 1.259840039E+04
 1.135693669E+03	 1.259779980E+04
 1.136250578E+03	 1.267779980E+04
 1.136807431E+03	 1.258859961E+04
 1.137364227E+03	 1.268320020E+04
 1.137920965E+03	 1.261600000E+04
 1.138477647E+03	 1.264740039E+04
 1.139034271E+03	 1.251620020E+04
 1.139590839E+03	 1.263020020E+04
 1.140147349E+03	 1.251300000E+04
 1.140703802E+03	 1.261240039E+04
 1.141260198E+03	 1.253379980E+04
 1.141816537E+03	 1.259400000E+04
 1.142372820E+03	 1.255500000E+04
 1.142929045E+03	 1.257200000E+04
 1.143485213E+03	 1.254300000E+04
 1.144041323E+03	 1.259079980E+04
 1.144597377E+03	 1.255559961E+04
 1.145153374E+03	 1.260579980E+04
 1.145709314E+03	 1.253259961E+04
 1.146265197E+03	 1.257000000E+04
 1.146821023E+03	 1.263679980E+04
 1.147376792E+03	 1.264440039E+04
 1.147932503E+03	 1.260320020E+04
 1.148488158E+03	 1.258659961E+04
 1.149043756E+03	 1.255140039E+04
 1.149599297E+03	 1.269320020E+04
 1.150154781E+03	 1.288920020E+04
 1.150710207E+03	 1.292640039E+04
 1.151265577E+03	 1.256159961E+04
 1.151820890E+03	 1.262379980E+04
 1.152376146E+03	 1.255679980E+04
 1.152931345E+03	 1.260679980E+04
 1.153486487E+03	 1.279300000E+04
 1.154041572E+03	 1.247179980E+04
 1.154596600E+03	 1.251359961E+04
 1.155151571E+03	 1.250420020E+04
 1.155706485E+03	 1.251840039E+04
 1.156261342E+03	 1.251940039E+04
 1.156816142E+03	 1.251179980E+04
 1.157370885E+03	 1.253840039E+04
 1.157925572E+03	 1.250220020E+04
 1.158480201E+03	 1.246140039E+04
 1.159034774E+03	 1.252740039E+04
 1.159589289E+03	 1.246920020E+04
 1.160143748E+03	 1.249620020E+04
 1.160698149E+03	 1.248920020E+04
 1.161252494E+03	 1.240700000E+04
 1.161806782E+03	 1.249179980E+04
 1.162361013E+03	 1.248440039E+04
 1.162915187E+03	 1.253240039E+04
 1.163469304E+03	 1.244120020E+04
 1.164023364E+03	 1.238820020E+04
 1.164577368E+03	 1.242879980E+04
 1.165131314E+03	 1.245379980E+04
 1.165685204E+03	 1.243879980E+04
 1.166239036E+03	 1.238840039E+04
 1.166792812E+03	 1.241620020E+04
 1.167346531E+03	 1.228800000E+04
 1.167900193E+03	 1.244400000E+04
 1.168453798E+03	 1.235020020E+04
 1.169007347E+03	 1.241620020E+04
 1.169560838E+03	 1.239059961E+04
 1.170114273E+03	 1.241600000E+04
 1.170667650E+03	 1.237700000E+04
 1.171220971E+03	 1.239020020E+04
 1.171774235E+03	 1.235959961E+04
 1.172327443E+03	 1.236959961E+04
 1.172880593E+03	 1.229940039E+04
 1.173433687E+03	 1.237000000E+04
 1.173986723E+03	 1.229759961E+04
 1.174539703E+03	 1.234059961E+04
 1.175092626E+03	 1.226100000E+04
 1.175645493E+03	 1.233559961E+04
 1.176198302E+03	 1.226740039E+04
 1.176751055E+03	 1.227759961E+04
 1.177303751E+03	 1.225159961E+04
 1.177856390E+03	 1.234259961E+04
 1.178408972E+03	 1.227640039E+04
 1.178961498E+03	 1.227620020E+04
 1.179513966E+03	 1.223100000E+04
 1.180066378E+03	 1.229220020E+04
 1.180618733E+03	 1.217159961E+04
 1.181171032E+03	 1.229540039E+04
 1.181723273E+03	 1.225640039E+04
 1.182275458E+03	 1.226700000E+04
 1.182827586E+03	 1.222120020E+04
 1.183379657E+03	 1.224879980E+04
 1.183931672E+03	 1.216900000E+04
 1.184483630E+03	 1.222159961E+04
 1.185035531E+03	 1.221220020E+04
 1.185587375E+03	 1.222359961E+04
 1.186139162E+03	 1.218640039E+04
 1.186690893E+03	 1.214079980E+04
 1.187242567E+03	 1.219040039E+04
 1.187794184E+03	 1.223500000E+04
 1.188345745E+03	 1.217540039E+04
 1.188897249E+03	 1.212800000E+04
 1.189448696E+03	 1.211200000E+04
 1.190000086E+03	 1.215720020E+04
 1.190551420E+03	 1.216020020E+04
 1.191102697E+03	 1.208040039E+04
 1.191653918E+03	 1.220159961E+04
 1.192205081E+03	 1.204979980E+04
 1.192756188E+03	 1.209359961E+04
 1.193307238E+03	 1.213400000E+04
 1.193858232E+03	 1.207600000E+04
 1.194409169E+03	 1.202800000E+04
 1.194960049E+03	 1.209700000E+04
 1.195510872E+03	 1.206200000E+04
 1.196061639E+03	 1.204840039E+04
 1.196612349E+03	 1.207900000E+04
 1.197163003E+03	 1.197879980E+04
 1.197713599E+03	 1.197359961E+04
 1.198264139E+03	 1.204840039E+04
 1.198814623E+03	 1.198959961E+04
 1.199365050E+03	 1.200820020E+04
 1.199915420E+03	 1.197840039E+04
 1.200465734E+03	 1.198040039E+04
 1.201015990E+03	 1.195740039E+04
 1.201566191E+03	 1.192940039E+04
 1.202116334E+03	 1.197820020E+04
 1.202666421E+03	 1.190379980E+04
 1.203216452E+03	 1.186540039E+04
 1.203766425E+03	 1.193679980E+04
 1.204316343E+03	 1.189659961E+04
 1.204866203E+03	 1.188840039E+04
 1.205416007E+03	 1.186559961E+04
 1.205965754E+03	 1.192459961E+04
 1.206515445E+03	 1.187040039E+04
 1.207065079E+03	 1.185100000E+04
 1.207614657E+03	 1.189320020E+04
 1.208164177E+03	 1.182540039E+04
 1.208713642E+03	 1.186179980E+04
 1.209263050E+03	 1.184859961E+04
 1.209812401E+03	 1.178779980E+04
 1.210361695E+03	 1.182620020E+04
 1.210910933E+03	 1.182459961E+04
 1.211460115E+03	 1.178440039E+04
 1.212009240E+03	 1.174040039E+04
 1.212558308E+03	 1.180779980E+04
 1.213107320E+03	 1.202859961E+04
 1.213656275E+03	 1.171940039E+04
 1.214205174E+03	 1.177559961E+04
 1.214754016E+03	 1.173620020E+04
 1.215302801E+03	 1.174040039E+04
 1.215851530E+03	 1.180400000E+04
 1.216400203E+03	 1.173079980E+04
 1.216948819E+03	 1.173020020E+04
 1.217497378E+03	 1.166900000E+04
 1.218045881E+03	 1.170479980E+04
 1.218594327E+03	 1.170140039E+04
 1.219142717E+03	 1.169800000E+04
 1.219691051E+03	 1.162740039E+04
 1.220239327E+03	 1.168900000E+04
 1.220787548E+03	 1.161040039E+04
 1.221335712E+03	 1.171800000E+04
 1.221883819E+03	 1.166740039E+04
 1.222431870E+03	 1.164340039E+04
 1.222979864E+03	 1.164859961E+04
 1.223527802E+03	 1.167740039E+04
 1.224075683E+03	 1.164540039E+04
 1.224623508E+03	 1.164440039E+04
 1.225171277E+03	 1.158040039E+04
 1.225718989E+03	 1.165759961E+04
 1.226266644E+03	 1.163359961E+04
 1.226814243E+03	 1.166620020E+04
 1.227361786E+03	 1.156940039E+04
 1.227909272E+03	 1.161000000E+04
 1.228456702E+03	 1.160820020E+04
 1.229004075E+03	 1.162800000E+04
 1.229551392E+03	 1.162979980E+04
 1.230098652E+03	 1.154520020E+04
 1.230645856E+03	 1.157200000E+04
 1.231193003E+03	 1.153620020E+04
 1.231740094E+03	 1.151240039E+04
 1.232287129E+03	 1.162440039E+04
 1.232834107E+03	 1.154840039E+04
 1.233381029E+03	 1.155759961E+04
 1.233927894E+03	 1.161000000E+04
 1.234474703E+03	 1.153279980E+04
 1.235021455E+03	 1.150579980E+04
 1.235568151E+03	 1.148279980E+04
 1.236114791E+03	 1.149840039E+04
 1.236661374E+03	 1.152820020E+04
 1.237207901E+03	 1.150559961E+04
 1.237754372E+03	 1.147679980E+04
 1.238300786E+03	 1.149500000E+04
 1.238847144E+03	 1.142079980E+04
 1.239393445E+03	 1.150320020E+04
 1.239939690E+03	 1.149179980E+04
 1.240485879E+03	 1.147579980E+04
 1.241032011E+03	 1.147159961E+04
 1.241578087E+03	 1.148100000E+04
 1.242124106E+03	 1.136300000E+04
 1.242670070E+03	 1.149520020E+04
 1.243215976E+03	 1.139859961E+04
 1.243761827E+03	 1.145979980E+04
 1.244307621E+03	 1.138679980E+04
 1.244853359E+03	 1.142720020E+04
 1.245399040E+03	 1.136879980E+04
 1.245944665E+03	 1.137979980E+04
 1.246490234E+03	 1.143520020E+04
 1.247035746E+03	 1.141379980E+04
 1.247581203E+03	 1.139979980E+04
 1.248126602E+03	 1.135140039E+04
 1.248671946E+03	 1.138940039E+04
 1.249217233E+03	 1.133300000E+04
 1.249762464E+03	 1.137900000E+04
 1.250307638E+03	 1.135979980E+04
 1.250852757E+03	 1.133300000E+04
 1.251397819E+03	 1.135879980E+04
 1.251942824E+03	 1.137840039E+04
 1.252487774E+03	 1.130540039E+04
 1.253032667E+03	 1.133020020E+04
 1.253577503E+03	 1.127679980E+04
 1.254122284E+03	 1.131120020E+04
 1.254667008E+03	 1.129079980E+04
 1.255211676E+03	 1.135079980E+04
 1.255756288E+03	 1.123940039E+04
 1.256300843E+03	 1.129340039E+04
 1.256845342E+03	 1.124859961E+04
 1.257389785E+03	 1.133220020E+04
 1.257934172E+03	 1.122120020E+04
 1.258478502E+03	 1.128479980E+04
 1.259022776E+03	 1.125520020E+04
 1.259566994E+03	 1.128879980E+04
 1.260111156E+03	 1.120940039E+04
 1.260655261E+03	 1.129620020E+04
 1.261199311E+03	 1.122020020E+04
 1.261743304E+03	 1.125040039E+04
 1.262287240E+03	 1.124600000E+04
 1.262831121E+03	 1.119940039E+04
 1.263374945E+03	 1.127000000E+04
 1.263918713E+03	 1.133340039E+04
 1.264462425E+03	 1.132079980E+04
 1.265006081E+03	 1.132600000E+04
 1.265549680E+03	 1.128159961E+04
 1.266093223E+03	 1.125059961E+04
 1.266636711E+03	 1.124879980E+04
 1.267180141E+03	 1.115720020E+04
 1.267723516E+03	 1.117720020E+04
 1.268266835E+03	 1.121979980E+04
 1.268810097E+03	 1.117340039E+04
 1.269353303E+03	 1.113820020E+04
 1.269896453E+03	 1.115440039E+04
 1.270439547E+03	 1.108479980E+04
 1.270982584E+03	 1.116059961E+04
 1.271525566E+03	 1.113920020E+04
 1.272068491E+03	 1.114340039E+04
 1.272611360E+03	 1.112179980E+04
 1.273154173E+03	 1.109540039E+04
 1.273696930E+03	 1.112620020E+04
 1.274239631E+03	 1.117200000E+04
 1.274782275E+03	 1.108600000E+04
 1.275324864E+03	 1.109240039E+04
 1.275867396E+03	 1.111440039E+04
 1.276409872E+03	 1.107720020E+04
 1.276952292E+03	 1.110079980E+04
 1.277494656E+03	 1.109120020E+04
 1.278036964E+03	 1.106020020E+04
 1.278579215E+03	 1.106820020E+04
 1.279121411E+03	 1.105620020E+04
 1.279663550E+03	 1.106359961E+04
 1.280205634E+03	 1.103179980E+04
 1.280747661E+03	 1.108720020E+04
 1.281289632E+03	 1.107179980E+04
 1.281831547E+03	 1.105279980E+04
 1.282373406E+03	 1.111379980E+04
 1.282915209E+03	 1.119759961E+04
 1.283456955E+03	 1.136120020E+04
 1.283998646E+03	 1.184700000E+04
 1.284540281E+03	 1.259459961E+04
 1.285081859E+03	 1.291620020E+04
 1.285623381E+03	 1.202279980E+04
 1.286164848E+03	 1.131120020E+04
 1.286706258E+03	 1.112179980E+04
 1.287247612E+03	 1.102900000E+04
 1.287788911E+03	 1.096920020E+04
 1.288330153E+03	 1.095340039E+04
 1.288871339E+03	 1.103640039E+04
 1.289412469E+03	 1.095179980E+04
 1.289953543E+03	 1.096459961E+04
 1.290494561E+03	 1.096279980E+04
 1.291035523E+03	 1.093840039E+04
 1.291576428E+03	 1.087700000E+04
 1.292117278E+03	 1.088220020E+04
 1.292658072E+03	 1.087100000E+04
 1.293198810E+03	 1.086559961E+04
 1.293739492E+03	 1.085879980E+04
 1.294280118E+03	 1.090900000E+04
 1.294820687E+03	 1.085000000E+04
 1.295361201E+03	 1.084940039E+04
 1.295901659E+03	 1.083720020E+04
 1.296442061E+03	 1.084640039E+04
 1.296982406E+03	 1.084740039E+04
 1.297522696E+03	 1.084640039E+04
 1.298062930E+03	 1.079040039E+04
 1.298603108E+03	 1.081159961E+04
 1.299143229E+03	 1.080879980E+04
 1.299683295E+03	 1.067400000E+04
 1.300223305E+03	 1.079820020E+04
 1.300763259E+03	 1.072020020E+04
 1.301303157E+03	 1.077159961E+04
 1.301842999E+03	 1.075020020E+04
 1.302382785E+03	 1.074740039E+04
 1.302922515E+03	 1.067779980E+04
 1.303462189E+03	 1.080200000E+04
 1.304001807E+03	 1.071679980E+04
 1.304541369E+03	 1.078500000E+04
 1.305080875E+03	 1.073800000E+04
 1.305620326E+03	 1.076079980E+04
 1.306159720E+03	 1.065779980E+04
 1.306699058E+03	 1.068600000E+04
 1.307238341E+03	 1.068540039E+04
 1.307777567E+03	 1.070100000E+04
 1.308316738E+03	 1.070140039E+04
 1.308855853E+03	 1.065540039E+04
 1.309394912E+03	 1.069979980E+04
 1.309933915E+03	 1.066059961E+04
 1.310472862E+03	 1.068820020E+04
 1.311011753E+03	 1.069879980E+04
 1.311550588E+03	 1.072900000E+04
 1.312089367E+03	 1.061520020E+04
 1.312628090E+03	 1.066879980E+04
 1.313166758E+03	 1.055779980E+04
 1.313705370E+03	 1.068479980E+04
 1.314243925E+03	 1.061520020E+04
 1.314782425E+03	 1.064920020E+04
 1.315320869E+03	 1.060359961E+04
 1.315859257E+03	 1.063200000E+04
 1.316397589E+03	 1.054740039E+04
 1.316935866E+03	 1.064240039E+04
 1.317474086E+03	 1.050220020E+04
 1.318012251E+03	 1.062559961E+04
 1.318550360E+03	 1.055640039E+04
 1.319088413E+03	 1.055820020E+04
 1.319626410E+03	 1.051259961E+04
 1.320164351E+03	 1.057020020E+04
 1.320702236E+03	 1.056800000E+04
 1.321240066E+03	 1.052840039E+04
 1.321777839E+03	 1.049020020E+04
 1.322315557E+03	 1.052900000E+04
 1.322853219E+03	 1.051459961E+04
 1.323390826E+03	 1.048520020E+04
 1.323928376E+03	 1.051640039E+04
 1.324465871E+03	 1.046540039E+04
 1.325003309E+03	 1.052579980E+04
 1.325540692E+03	 1.040840039E+04
 1.326078020E+03	 1.048879980E+04
 1.326615291E+03	 1.046359961E+04
 1.327152506E+03	 1.052379980E+04
 1.327689666E+03	 1.041440039E+04
 1.328226770E+03	 1.044679980E+04
 1.328763818E+03	 1.046620020E+04
 1.329300811E+03	 1.048300000E+04
 1.329837747E+03	 1.040459961E+04
 1.330374628E+03	 1.039340039E+04
 1.330911453E+03	 1.042740039E+04
 1.331448222E+03	 1.046700000E+04
 1.331984936E+03	 1.042379980E+04
 1.332521594E+03	 1.041000000E+04
 1.333058196E+03	 1.042520020E+04
 1.333594742E+03	 1.044100000E+04
 1.334131232E+03	 1.043340039E+04
 1.334667667E+03	 1.033540039E+04
 1.335204046E+03	 1.041740039E+04
 1.335740369E+03	 1.037120020E+04
 1.336276637E+03	 1.038800000E+04
 1.336812848E+03	 1.033200000E+04
 1.337349004E+03	 1.040500000E+04
 1.337885105E+03	 1.041840039E+04
 1.338421149E+03	 1.043559961E+04
 1.338957138E+03	 1.033120020E+04
 1.339493071E+03	 1.038640039E+04
 1.340028949E+03	 1.034720020E+04
 1.340564770E+03	 1.034579980E+04
 1.341100536E+03	 1.033900000E+04
 1.341636246E+03	 1.031700000E+04
 1.342171901E+03	 1.027420020E+04
 1.342707500E+03	 1.032420020E+04
 1.343243043E+03	 1.030379980E+04
 1.343778530E+03	 1.026879980E+04
 1.344313962E+03	 1.036000000E+04
 1.344849338E+03	 1.023759961E+04
 1.345384659E+03	 1.033759961E+04
 1.345919923E+03	 1.028220020E+04
 1.346455133E+03	 1.035159961E+04
 1.346990286E+03	 1.024740039E+04
 1.347525384E+03	 1.031679980E+04
 1.348060426E+03	 1.023320020E+04
 1.348595412E+03	 1.023579980E+04
 1.349130343E+03	 1.025220020E+04
 1.349665218E+03	 1.028659961E+04
 1.350200037E+03	 1.025620020E+04
 1.350734801E+03	 1.025040039E+04
 1.351269509E+03	 1.018720020E+04
 1.351804162E+03	 1.026179980E+04
 1.352338758E+03	 1.020220020E+04
 1.352873300E+03	 1.028379980E+04
 1.353407785E+03	 1.021640039E+04
 1.353942215E+03	 1.015979980E+04
 1.354476589E+03	 1.021140039E+04
 1.355010908E+03	 1.018379980E+04
 1.355545171E+03	 1.018479980E+04
 1.356079379E+03	 1.016900000E+04
 1.356613530E+03	 1.021379980E+04
 1.357147627E+03	 1.011100000E+04
 1.357681667E+03	 1.018700000E+04
 1.358215652E+03	 1.012440039E+04
 1.358749582E+03	 1.018120020E+04
 1.359283456E+03	 1.011679980E+04
 1.359817274E+03	 1.012259961E+04
 1.360351037E+03	 1.017600000E+04
 1.360884744E+03	 1.026659961E+04
 1.361418395E+03	 1.008559961E+04
 1.361951991E+03	 1.012479980E+04
 1.362485531E+03	 1.014479980E+04
 1.363019016E+03	 1.012679980E+04
 1.363552445E+03	 1.008459961E+04
 1.364085819E+03	 1.027620020E+04
 1.364619137E+03	 1.014840039E+04
 1.365152400E+03	 1.010879980E+04
 1.365685607E+03	 1.010500000E+04
 1.366218758E+03	 1.005959961E+04
 1.366751854E+03	 1.012540039E+04
 1.367284894E+03	 1.004259961E+04
 1.367817879E+03	 1.007120020E+04
 1.368350808E+03	 1.005459961E+04
 1.368883682E+03	 1.012040039E+04
 1.369416500E+03	 1.000200000E+04
 1.369949263E+03	 1.013379980E+04
 1.370481970E+03	 1.012259961E+04
 1.371014622E+03	 1.001979980E+04
 1.371547218E+03	 1.004479980E+04
 1.372079758E+03	 1.003140039E+04
 1.372612244E+03	 1.000479980E+04
 1.373144673E+03	 1.000500000E+04
 1.373677047E+03	 1.008179980E+04
 1.374209366E+03	 9.956400391E+03
 1.374741629E+03	 9.998799805E+03
 1.375273836E+03	 9.981599609E+03
 1.375805989E+03	 9.966799805E+03
 1.376338085E+03	 9.900000000E+03
 1.376870126E+03	 9.960599609E+03
 1.377402112E+03	 9.939799805E+03
 1.377934042E+03	 9.988000000E+03
 1.378465917E+03	 9.901799805E+03
 1.378997736E+03	 9.971799805E+03
 1.379529500E+03	 9.959200195E+03
 1.380061208E+03	 9.973200195E+03
 1.380592861E+03	 9.939400391E+03
 1.381124459E+03	 9.913599609E+03
 1.381656000E+03	 9.963200195E+03
 1.382187487E+03	 9.961799805E+03
 1.382718918E+03	 9.966599609E+03
 1.383250294E+03	 9.935000000E+03
 1.383781614E+03	 9.892599609E+03
 1.384312879E+03	 9.910599609E+03
 1.384844088E+03	 9.990000000E+03
 1.385375242E+03	 9.964599609E+03
 1.385906340E+03	 1.006459961E+04
 1.386437383E+03	 1.011220020E+04
 1.386968371E+03	 1.033959961E+04
 1.387499303E+03	 1.095400000E+04
 1.388030180E+03	 1.284000000E+04
 1.388561001E+03	 1.368700000E+04
 1.389091767E+03	 1.150920020E+04
 1.389622478E+03	 1.030020020E+04
 1.390153133E+03	 1.004179980E+04
 1.390683733E+03	 9.929799805E+03
 1.391214277E+03	 9.909799805E+03
 1.391744766E+03	 9.904400391E+03
 1.392275200E+03	 9.860200195E+03
 1.392805578E+03	 9.841599609E+03
 1.393335901E+03	 9.872599609E+03
 1.393866168E+03	 9.908599609E+03
 1.394396381E+03	 9.793000000E+03
 1.394926537E+03	 9.822400391E+03
 1.395456639E+03	 9.811799805E+03
 1.395986685E+03	 9.823599609E+03
 1.396516675E+03	 9.805400391E+03
 1.397046611E+03	 9.836200195E+03
 1.397576491E+03	 9.826000000E+03
 1.398106315E+03	 9.793000000E+03
 1.398636084E+03	 9.832200195E+03
 1.399165798E+03	 9.795400391E+03
 1.399695457E+03	 9.783000000E+03
 1.400225060E+03	 9.760400391E+03
 1.400754608E+03	 9.817400391E+03
 1.401284101E+03	 9.721599609E+03
 1.401813538E+03	 9.825200195E+03
 1.402342920E+03	 9.723599609E+03
 1.402872247E+03	 9.834200195E+03
 1.403401518E+03	 9.748799805E+03
 1.403930734E+03	 9.743599609E+03
 1.404459895E+03	 9.734400391E+03
 1.404989000E+03	 9.794000000E+03
 1.405518050E+03	 9.671000000E+03
 1.406047045E+03	 9.800000000E+03
 1.406575984E+03	 9.762599609E+03
 1.407104869E+03	 9.750000000E+03
 1.407633697E+03	 9.760400391E+03
 1.408162471E+03	 9.728599609E+03
 1.408691189E+03	 9.856599609E+03
 1.409219852E+03	 9.872000000E+03
 1.409748460E+03	 9.982599609E+03
 1.410277013E+03	 9.914799805E+03
 1.410805510E+03	 9.825799805E+03
 1.411333952E+03	 9.723799805E+03
 1.411862339E+03	 9.719599609E+03
 1.412390670E+03	 9.620799805E+03
 1.412918946E+03	 9.679000000E+03
 1.413447167E+03	 9.682400391E+03
 1.413975333E+03	 9.671400391E+03
 1.414503444E+03	 9.705599609E+03
 1.415031499E+03	 9.686799805E+03
 1.415559499E+03	 9.635200195E+03
 1.416087444E+03	 9.655200195E+03
 1.416615333E+03	 9.605200195E+03
 1.417143167E+03	 9.680000000E+03
 1.417670947E+03	 9.648599609E+03
 1.418198670E+03	 9.600000000E+03
 1.418726339E+03	 9.667400391E+03
 1.419253952E+03	 9.616200195E+03
 1.419781511E+03	 9.700200195E+03
 1.420309014E+03	 9.578400391E+03
 1.420836461E+03	 9.643000000E+03
 1.421363854E+03	 9.590400391E+03
 1.421891191E+03	 9.619200195E+03
 1.422418474E+03	 9.558000000E+03
 1.422945701E+03	 9.576200195E+03
 1.423472872E+03	 9.598799805E+03
 1.423999989E+03	 9.579400391E+03
 1.424527050E+03	 9.578799805E+03
 1.425054057E+03	 9.608799805E+03
 1.425581008E+03	 9.620400391E+03
 1.426107904E+03	 9.620200195E+03
 1.426634745E+03	 9.644400391E+03
 1.427161530E+03	 9.544799805E+03
 1.427688261E+03	 9.594799805E+03
 1.428214936E+03	 9.574599609E+03
 1.428741556E+03	 9.554599609E+03
 1.429268121E+03	 9.594400391E+03
 1.429794631E+03	 9.567599609E+03
 1.430321085E+03	 9.535599609E+03
 1.430847485E+03	 9.581200195E+03
 1.431373829E+03	 9.568000000E+03
 1.431900118E+03	 9.519599609E+03
 1.432426353E+03	 9.530000000E+03
 1.432952532E+03	 9.491599609E+03
 1.433478655E+03	 9.472200195E+03
 1.434004724E+03	 9.542400391E+03
 1.434530738E+03	 9.499000000E+03
 1.435056696E+03	 9.461200195E+03
 1.435582600E+03	 9.520599609E+03
 1.436108448E+03	 9.464799805E+03
 1.436634241E+03	 9.494599609E+03
 1.437159979E+03	 9.474599609E+03
 1.437685662E+03	 9.509000000E+03
 1.438211290E+03	 9.399000000E+03
 1.438736863E+03	 9.487000000E+03
 1.439262381E+03	 9.459200195E+03
 1.439787843E+03	 9.455000000E+03
 1.440313251E+03	 9.431599609E+03
 1.440838603E+03	 9.457799805E+03
 1.441363900E+03	 9.427400391E+03
 1.441889143E+03	 9.416599609E+03
 1.442414330E+03	 9.427599609E+03
 1.442939462E+03	 9.430000000E+03
 1.443464539E+03	 9.403400391E+03
 1.443989561E+03	 9.397000000E+03
 1.444514528E+03	 9.385599609E+03
 1.445039440E+03	 9.409799805E+03
 1.445564297E+03	 9.465599609E+03
 1.446089099E+03	 9.368200195E+03
 1.446613846E+03	 9.422000000E+03
 1.447138537E+03	 9.374000000E+03
 1.447663174E+03	 9.362000000E+03
 1.448187756E+03	 9.306599609E+03
 1.448712282E+03	 9.376200195E+03
 1.449236754E+03	 9.305799805E+03
 1.449761171E+03	 9.378599609E+03
 1.450285532E+03	 9.365599609E+03
 1.450809839E+03	 9.327000000E+03
 1.451334090E+03	 9.330799805E+03
 1.451858287E+03	 9.295200195E+03
 1.452382428E+03	 9.325599609E+03
 1.452906515E+03	 9.333599609E+03
 1.453430546E+03	 9.357599609E+03
 1.453954523E+03	 9.224200195E+03
 1.454478444E+03	 9.311599609E+03
 1.455002311E+03	 9.315799805E+03
 1.455526123E+03	 9.343000000E+03
 1.456049879E+03	 9.299000000E+03
 1.456573581E+03	 9.330400391E+03
 1.457097227E+03	 9.285000000E+03
 1.457620819E+03	 9.328000000E+03
 1.458144356E+03	 9.289599609E+03
 1.458667837E+03	 9.264000000E+03
 1.459191264E+03	 9.236200195E+03
 1.459714636E+03	 9.271000000E+03
 1.460237952E+03	 9.280000000E+03
 1.460761214E+03	 9.293200195E+03
 1.461284421E+03	 9.282799805E+03
 1.461807573E+03	 9.288200195E+03
 1.462330670E+03	 9.236799805E+03
 1.462853712E+03	 9.187799805E+03
 1.463376699E+03	 9.255599609E+03
 1.463899632E+03	 9.262799805E+03
 1.464422509E+03	 9.241200195E+03
 1.464945331E+03	 9.237200195E+03
 1.465468099E+03	 9.232799805E+03
 1.465990811E+03	 9.229000000E+03
 1.466513469E+03	 9.171000000E+03
 1.467036071E+03	 9.195400391E+03
 1.467558619E+03	 9.216000000E+03
 1.468081112E+03	 9.192599609E+03
 1.468603550E+03	 9.200599609E+03
 1.469125933E+03	 9.184799805E+03
 1.469648261E+03	 9.175599609E+03
 1.470170534E+03	 9.126200195E+03
 1.470692752E+03	 9.150799805E+03
 1.471214916E+03	 9.137599609E+03
 1.471737024E+03	 9.137599609E+03
 1.472259078E+03	 9.158599609E+03
 1.472781077E+03	 9.141000000E+03
 1.473303021E+03	 9.140200195E+03
 1.473824910E+03	 9.152799805E+03
 1.474346744E+03	 9.092599609E+03
 1.474868523E+03	 9.146599609E+03
 1.475390248E+03	 9.090400391E+03
 1.475911917E+03	 9.128799805E+03
 1.476433532E+03	 9.124400391E+03
 1.476955092E+03	 9.138000000E+03
 1.477476597E+03	 9.082000000E+03
 1.477998047E+03	 9.079599609E+03
 1.478519442E+03	 9.077400391E+03
 1.479040783E+03	 9.031200195E+03
 1.479562068E+03	 9.025200195E+03
 1.480083299E+03	 9.065400391E+03
 1.480604475E+03	 9.060599609E+03
 1.481125596E+03	 9.095799805E+03
 1.481646663E+03	 9.079400391E+03
 1.482167674E+03	 9.007799805E+03
 1.482688631E+03	 9.078000000E+03
 1.483209533E+03	 9.003799805E+03
 1.483730380E+03	 9.028799805E+03
 1.484251172E+03	 8.979000000E+03
 1.484771909E+03	 9.031599609E+03
 1.485292592E+03	 9.017400391E+03
 1.485813220E+03	 9.029400391E+03
 1.486333793E+03	 9.000599609E+03
 1.486854311E+03	 8.955799805E+03
 1.487374775E+03	 8.984400391E+03
 1.487895183E+03	 8.972799805E+03
 1.488415537E+03	 8.942200195E+03
 1.488935836E+03	 8.932799805E+03
 1.489456081E+03	 8.941799805E+03
 1.489976270E+03	 8.981799805E+03
 1.490496405E+03	 8.973400391E+03
 1.491016485E+03	 8.941400391E+03
 1.491536511E+03	 8.967200195E+03
 1.492056481E+03	 8.951400391E+03
 1.492576397E+03	 8.930400391E+03
 1.493096258E+03	 8.898200195E+03
 1.493616064E+03	 8.926599609E+03
 1.494135816E+03	 8.955400391E+03
 1.494655513E+03	 8.932400391E+03
 1.495175155E+03	 8.877200195E+03
 1.495694742E+03	 8.892200195E+03
 1.496214274E+03	 8.845000000E+03
 1.496733752E+03	 8.873400391E+03
 1.497253175E+03	 8.894799805E+03
 1.497772544E+03	 8.859599609E+03
 1.498291858E+03	 8.868400391E+03
 1.498811116E+03	 8.890599609E+03
 1.499330321E+03	 8.847400391E+03
 1.499849470E+03	 8.888000000E+03
 1.500368565E+03	 8.901599609E+03
 1.500887605E+03	 8.862599609E+03
 1.501406591E+03	 8.830799805E+03
 1.501925521E+03	 8.837799805E+03
 1.502444397E+03	 8.836400391E+03
 1.502963219E+03	 8.823400391E+03
 1.503481985E+03	 8.793599609E+03
 1.504000697E+03	 8.826200195E+03
 1.504519355E+03	 8.830599609E+03
 1.505037957E+03	 8.841200195E+03
 1.505556505E+03	 8.880799805E+03
 1.506074999E+03	 8.822200195E+03
 1.506593437E+03	 8.774599609E+03
 1.507111821E+03	 8.760400391E+03
 1.507630150E+03	 8.788400391E+03
 1.508148425E+03	 8.753000000E+03
 1.508666645E+03	 8.783000000E+03
 1.509184810E+03	 8.791200195E+03
 1.509702921E+03	 8.770400391E+03
 1.510220977E+03	 8.773000000E+03
 1.510738979E+03	 8.782799805E+03
 1.511256925E+03	 8.716599609E+03
 1.511774817E+03	 8.776200195E+03
 1.512292655E+03	 8.799400391E+03
 1.512810438E+03	 8.762599609E+03
 1.513328166E+03	 8.715799805E+03
 1.513845840E+03	 8.693799805E+03
 1.514363459E+03	 8.743000000E+03
 1.514881023E+03	 8.699000000E+03
 1.515398533E+03	 8.711000000E+03
 1.515915988E+03	 8.750200195E+03
 1.516433389E+03	 8.759000000E+03
 1.516950734E+03	 8.708200195E+03
 1.517468026E+03	 8.715200195E+03
 1.517985263E+03	 8.718400391E+03
 1.518502445E+03	 8.715200195E+03
 1.519019572E+03	 8.718599609E+03
 1.519536645E+03	 8.723000000E+03
 1.520053664E+03	 8.763000000E+03
 1.520570628E+03	 8.704200195E+03
 1.521087537E+03	 8.659000000E+03
 1.521604392E+03	 8.715200195E+03
 1.522121192E+03	 8.683200195E+03
 1.522637937E+03	 8.703000000E+03
 1.523154628E+03	 8.631799805E+03
 1.523671265E+03	 8.685400391E+03
 1.524187847E+03	 8.635000000E+03
 1.524704374E+03	 8.629000000E+03
 1.525220847E+03	 8.700599609E+03
 1.525737265E+03	 8.660400391E+03
 1.526253629E+03	 8.662200195E+03
 1.526769938E+03	 8.711200195E+03
 1.527286192E+03	 8.722200195E+03
 1.527802392E+03	 8.692200195E+03
 1.528318538E+03	 8.705200195E+03
 1.528834629E+03	 8.658400391E+03
 1.529350666E+03	 8.674799805E+03
 1.529866648E+03	 8.647400391E+03
 1.530382575E+03	 8.686000000E+03
 1.530898448E+03	 8.715000000E+03
 1.531414266E+03	 8.612200195E+03
 1.531930030E+03	 8.663599609E+03
 1.532445740E+03	 8.694599609E+03
 1.532961395E+03	 8.676400391E+03
 1.533476995E+03	 8.637400391E+03
 1.533992541E+03	 8.641799805E+03
 1.534508033E+03	 8.706200195E+03
 1.535023470E+03	 8.663599609E+03
 1.535538852E+03	 8.636400391E+03
 1.536054180E+03	 8.667599609E+03
 1.536569454E+03	 8.642000000E+03
 1.537084673E+03	 8.590000000E+03
 1.537599837E+03	 8.632200195E+03
 1.538114947E+03	 8.574799805E+03
 1.538630003E+03	 8.597599609E+03
 1.539145004E+03	 8.614599609E+03
 1.539659951E+03	 8.668000000E+03
 1.540174843E+03	 8.571000000E+03
 1.540689681E+03	 8.641400391E+03
 1.541204465E+03	 8.636599609E+03
 1.541719194E+03	 8.601799805E+03
 1.542233868E+03	 8.626200195E+03
 1.542748488E+03	 8.626799805E+03
 1.543263054E+03	 8.600599609E+03
 1.543777565E+03	 8.598200195E+03
 1.544292022E+03	 8.630000000E+03
 1.544806424E+03	 8.627400391E+03
 1.545320772E+03	 8.645200195E+03
 1.545835066E+03	 8.566200195E+03
 1.546349305E+03	 8.607200195E+03
 1.546863489E+03	 8.619200195E+03
 1.547377620E+03	 8.537400391E+03
 1.547891696E+03	 8.614000000E+03
 1.548405717E+03	 8.608400391E+03
 1.548919684E+03	 8.611799805E+03
 1.549433597E+03	 8.531400391E+03
 1.549947455E+03	 8.630200195E+03
 1.550461259E+03	 8.557000000E+03
 1.550975009E+03	 8.566000000E+03
 1.551488704E+03	 8.537400391E+03
 1.552002345E+03	 8.570400391E+03
 1.552515931E+03	 8.548000000E+03
 1.553029463E+03	 8.559599609E+03
 1.553542941E+03	 8.563799805E+03
 1.554056364E+03	 8.540400391E+03
 1.554569733E+03	 8.590400391E+03
 1.555083048E+03	 8.511000000E+03
 1.555596308E+03	 8.557799805E+03
 1.556109514E+03	 8.532200195E+03
 1.556622665E+03	 8.524799805E+03
 1.557135762E+03	 8.560400391E+03
 1.557648805E+03	 8.552599609E+03
 1.558161794E+03	 8.548799805E+03
 1.558674728E+03	 8.524599609E+03
 1.559187608E+03	 8.537200195E+03
 1.559700433E+03	 8.529400391E+03
 1.560213205E+03	 8.511000000E+03
 1.560725921E+03	 8.497799805E+03
 1.561238584E+03	 8.565000000E+03
 1.561751192E+03	 8.533400391E+03
 1.562263746E+03	 8.553599609E+03
 1.562776246E+03	 8.515000000E+03
 1.563288691E+03	 8.489799805E+03
 1.563801082E+03	 8.533200195E+03
 1.564313419E+03	 8.480000000E+03
 1.564825701E+03	 8.495000000E+03
 1.565337929E+03	 8.441599609E+03
 1.565850103E+03	 8.450599609E+03
 1.566362223E+03	 8.483599609E+03
 1.566874288E+03	 8.536400391E+03
 1.567386299E+03	 8.510599609E+03
 1.567898256E+03	 8.501400391E+03
 1.568410158E+03	 8.499000000E+03
 1.568922007E+03	 8.467400391E+03
 1.569433800E+03	 8.472400391E+03
 1.569945540E+03	 8.514200195E+03
 1.570457226E+03	 8.464200195E+03
 1.570968857E+03	 8.449000000E+03
 1.571480434E+03	 8.476000000E+03
 1.571991956E+03	 8.433799805E+03
 1.572503425E+03	 8.484599609E+03
 1.573014839E+03	 8.475799805E+03
 1.573526199E+03	 8.425200195E+03
 1.574037505E+03	 8.425000000E+03
 1.574548756E+03	 8.437799805E+03
 1.575059953E+03	 8.460799805E+03
 1.575571096E+03	 8.404200195E+03
 1.576082185E+03	 8.412000000E+03
 1.576593220E+03	 8.420799805E+03
 1.577104200E+03	 8.497000000E+03
 1.577615126E+03	 8.411000000E+03
 1.578125998E+03	 8.453799805E+03
 1.578636816E+03	 8.427200195E+03
 1.579147580E+03	 8.430599609E+03
 1.579658289E+03	 8.438799805E+03
 1.580168944E+03	 8.409000000E+03
 1.580679545E+03	 8.384200195E+03
 1.581190092E+03	 8.323000000E+03
 1.581700585E+03	 8.429400391E+03
 1.582211023E+03	 8.354000000E+03
 1.582721407E+03	 8.411000000E+03
 1.583231737E+03	 8.347400391E+03
 1.583742013E+03	 8.364400391E+03
 1.584252235E+03	 8.303599609E+03
 1.584762403E+03	 8.347799805E+03
 1.585272516E+03	 8.350400391E+03
 1.585782575E+03	 8.363000000E+03
 1.586292581E+03	 8.375400391E+03
 1.586802532E+03	 8.316400391E+03
 1.587312428E+03	 8.408200195E+03
 1.587822271E+03	 8.342599609E+03
 1.588332060E+03	 8.371799805E+03
 1.588841794E+03	 8.325799805E+03
 1.589351474E+03	 8.336599609E+03
 1.589861100E+03	 8.376000000E+03
 1.590370672E+03	 8.330400391E+03
 1.590880190E+03	 8.398599609E+03
 1.591389654E+03	 8.311799805E+03
 1.591899064E+03	 8.346000000E+03
 1.592408419E+03	 8.341000000E+03
