1042.452273	681.5999756
1043.018714	678.7999878
1043.585098	678.4000244
1044.151424	673.7999878
1044.717692	675.5999756
1045.283903	675.5999756
1045.850056	670.5999756
1046.416151	672.7999878
1046.982188	673.4000244
1047.548167	674.4000244
1048.114089	672.4000244
1048.679953	671.7999878
1049.24576	670.2000122
1049.811509	673.2000122
1050.3772	671.4000244
1050.942833	670.4000244
1051.508408	669.7999878
1052.073926	670.4000244
1052.639387	667.2000122
1053.204789	667.2000122
1053.770134	666.0
1054.335421	668.4000244
1054.900651	670.5999756
1055.465823	668.4000244
1056.030937	669.0
1056.595993	666.0
1057.160992	666.7999878
1057.725934	667.2000122
1058.290817	665.2000122
1058.855643	663.4000244
1059.420411	666.5999756
1059.985122	666.0
1060.549775	665.7999878
1061.114371	666.7999878
1061.678908	668.4000244
1062.243389	664.2000122
1062.807811	665.5999756
1063.372176	663.5999756
1063.936483	666.5999756
1064.500733	665.4000244
1065.064925	663.5999756
1065.62906	667.4000244
1066.193137	664.5999756
1066.757156	665.0
1067.321118	665.0
1067.885022	664.0
1068.448869	663.5999756
1069.012658	663.4000244
1069.57639	665.0
1070.140063	670.5999756
1070.70368	666.0
1071.267239	662.4000244
1071.83074	663.5999756
1072.394184	664.5999756
1072.95757	663.7999878
1073.520899	662.7999878
1074.08417	665.2000122
1074.647383	663.4000244
1075.21054	668.5999756
1075.773638	664.0
1076.336679	665.2000122
1076.899663	664.0
1077.462589	662.7999878
1078.025457	665.0
1078.588268	660.7999878
1079.151022	664.2000122
1079.713718	663.2000122
1080.276356	664.2000122
1080.838937	663.2000122
1081.401461	664.0
1081.963927	664.5999756
1082.526336	666.0
1083.088687	663.5999756
1083.650981	662.2000122
1084.213217	666.0
1084.775396	661.2000122
1085.337517	666.0
1085.899581	662.7999878
1086.461587	663.4000244
1087.023536	665.2000122
1087.585428	663.2000122
1088.147262	663.2000122
1088.709039	663.0
1089.270758	663.4000244
1089.83242	664.5999756
1090.394024	664.7999878
1090.955571	665.7999878
1091.517061	663.5999756
1092.078493	664.4000244
1092.639868	665.2000122
1093.201185	663.4000244
1093.762445	662.4000244
1094.323648	664.0
1094.884793	664.2000122
1095.445881	662.4000244
1096.006911	663.0
1096.567884	663.7999878
1097.1288	671.2000122
1097.689659	662.4000244
1098.25046	661.5999756
1098.811203	664.4000244
1099.37189	662.0
1099.932518	664.2000122
1100.49309	663.4000244
1101.053604	662.5999756
1101.614061	665.0
1102.174461	662.5999756
1102.734803	665.7999878
1103.295088	661.2000122
1103.855316	661.5999756
1104.415486	665.0
1104.975599	663.0
1105.535655	662.5999756
1106.095653	663.0
1106.655594	662.2000122
1107.215478	663.4000244
1107.775305	662.0
1108.335074	663.2000122
1108.894786	662.0
1109.45444	661.7999878
1110.014038	662.0
1110.573578	665.4000244
1111.133061	664.2000122
1111.692486	661.5999756
1112.251854	661.0
1112.811165	662.7999878
1113.370419	664.2000122
1113.929616	663.7999878
1114.488755	661.0
1115.047837	661.0
1115.606862	663.0
1116.16583	660.5999756
1116.72474	663.2000122
1117.283593	666.5999756
1117.842389	663.4000244
1118.401128	664.0
1118.959809	662.5999756
1119.518433	662.4000244
1120.077	665.5999756
1120.63551	663.0
1121.193963	663.0
1121.752358	662.7999878
1122.310697	661.0
1122.868978	663.7999878
1123.427202	663.2000122
1123.985368	660.7999878
1124.543478	661.2000122
1125.10153	662.5999756
1125.659526	663.2000122
1126.217464	660.5999756
1126.775345	662.0
1127.333168	662.4000244
1127.890935	664.0
1128.448644	661.7999878
1129.006297	663.4000244
1129.563892	663.0
1130.12143	664.5999756
1130.678911	662.5999756
1131.236335	664.0
1131.793701	662.0
1132.351011	664.7999878
1132.908263	661.4000244
1133.465458	665.5999756
1134.022597	660.2000122
1134.579678	663.2000122
1135.136702	662.5999756
1135.693669	664.5999756
1136.250578	662.0
1136.807431	665.0
1137.364227	660.0
1137.920965	661.2000122
1138.477647	663.4000244
1139.034271	661.4000244
1139.590839	663.7999878
1140.147349	662.4000244
1140.703802	663.4000244
1141.260198	661.0
1141.816537	661.0
1142.37282	664.4000244
1142.929045	663.4000244
1143.485213	664.0
1144.041323	662.0
1144.597377	663.2000122
1145.153374	661.7999878
1145.709314	663.2000122
1146.265197	665.2000122
1146.821023	661.0
1147.376792	666.2000122
1147.932503	665.2000122
1148.488158	663.5999756
1149.043756	660.4000244
1149.599297	664.0
1150.154781	664.4000244
1150.710207	664.4000244
1151.265577	664.4000244
1151.82089	663.0
1152.376146	660.7999878
1152.931345	662.5999756
1153.486487	662.2000122
1154.041572	662.0
1154.5966	662.2000122
1155.151571	663.2000122
1155.706485	663.2000122
1156.261342	659.0
1156.816142	662.7999878
1157.370885	662.5999756
1157.925572	662.7999878
1158.480201	659.0
1159.034774	661.0
1159.589289	663.5999756
1160.143748	663.2000122
1160.698149	661.5999756
1161.252494	662.7999878
1161.806782	661.4000244
1162.361013	663.2000122
1162.915187	662.7999878
1163.469304	662.5999756
1164.023364	664.7999878
1164.577368	660.0
1165.131314	660.0
1165.685204	662.4000244
1166.239036	662.4000244
1166.792812	664.4000244
1167.346531	662.4000244
1167.900193	659.2000122
1168.453798	662.0
1169.007347	661.5999756
1169.560838	662.4000244
1170.114273	663.5999756
1170.66765	664.0
1171.220971	660.2000122
1171.774235	660.4000244
1172.327443	661.5999756
1172.880593	662.2000122
1173.433687	664.0
1173.986723	663.5999756
1174.539703	662.5999756
1175.092626	665.4000244
1175.645493	659.7999878
1176.198302	661.4000244
1176.751055	663.5999756
1177.303751	662.5999756
1177.85639	662.7999878
1178.408972	661.5999756
1178.961498	662.7999878
1179.513966	661.2000122
1180.066378	662.4000244
1180.618733	661.7999878
1181.171032	660.7999878
1181.723273	661.7999878
1182.275458	662.2000122
1182.827586	665.0
1183.379657	661.7999878
1183.931672	661.4000244
1184.48363	662.4000244
1185.035531	662.5999756
1185.587375	664.2000122
1186.139162	662.5999756
1186.690893	663.4000244
1187.242567	663.0
1187.794184	660.5999756
1188.345745	661.5999756
1188.897249	661.2000122
1189.448696	663.7999878
1190.000086	663.4000244
1190.55142	662.0
1191.102697	661.5999756
1191.653918	663.4000244
1192.205081	663.5999756
1192.756188	662.5999756
1193.858232	662.4000244
1194.409169	661.2000122
1194.960049	661.5999756
1195.510872	662.5999756
1196.061639	660.7999878
1196.612349	664.0
1197.163003	662.0
1197.713599	664.5999756
1198.264139	662.2000122
1198.814623	662.5999756
1199.36505	660.0
1199.91542	663.2000122
1200.465734	664.0
1201.01599	664.0
1201.566191	664.4000244
1202.116334	661.2000122
1202.666421	664.5999756
1203.216452	663.4000244
1203.766425	660.2000122
1204.316343	663.5999756
1204.866203	661.0
1205.416007	662.2000122
1205.965754	665.0
1206.515445	661.7999878
1207.065079	662.0
1207.614657	662.0
1208.164177	663.0
1208.713642	661.2000122
1209.26305	662.0
1209.812401	663.7999878
1210.361695	665.0
1210.910933	666.0
1211.460115	663.5999756
1212.00924	663.7999878
1212.558308	665.2000122
1213.10732	664.5999756
1213.656275	661.7999878
1214.205174	662.0
1214.754016	663.4000244
1215.302801	661.5999756
1215.85153	667.4000244
1216.400203	662.2000122
1216.948819	660.0
1217.497378	664.0
1218.045881	662.4000244
1218.594327	664.4000244
1219.142717	664.0
1219.691051	661.7999878
1220.239327	665.0
1220.787548	663.7999878
1221.335712	665.0
1221.883819	661.4000244
1222.43187	659.0
1222.979864	663.2000122
1223.527802	666.0
1224.075683	663.5999756
1224.623508	665.4000244
1225.171277	661.4000244
1225.718989	662.2000122
1226.266644	663.0
1226.814243	663.5999756
1227.361786	662.7999878
1227.909272	663.5999756
1228.456702	665.7999878
1229.004075	662.0
1229.551392	660.5999756
1230.098652	661.4000244
1230.645856	663.4000244
1231.193003	662.5999756
1231.740094	665.2000122
1232.287129	662.7999878
1232.834107	664.2000122
1233.381029	665.2000122
1233.927894	666.4000244
1234.474703	666.0
1235.021455	666.4000244
1235.568151	662.7999878
1236.114791	661.7999878
1236.661374	666.2000122
1237.207901	665.0
1237.754372	664.2000122
1238.300786	666.7999878
1238.847144	666.4000244
1239.393445	664.5999756
1239.93969	666.5999756
1240.485879	667.5999756
1241.032011	665.0
1241.578087	663.0
1242.124106	663.2000122
1242.67007	666.4000244
1243.215976	665.0
1243.761827	665.5999756
1244.307621	668.7999878
1244.853359	665.5999756
1245.39904	669.4000244
1245.944665	666.2000122
1246.490234	662.7999878
1247.035746	665.2000122
1247.581203	667.0
1248.126602	664.0
1248.671946	667.5999756
1249.217233	667.4000244
1249.762464	667.5999756
1250.307638	667.2000122
1250.852757	668.5999756
1251.397819	665.7999878
1251.942824	665.4000244
1252.487774	668.2000122
1253.032667	665.5999756
1253.577503	665.4000244
1254.122284	667.7999878
1254.667008	664.2000122
1255.211676	666.5999756
1255.756288	665.5999756
1256.300843	669.5999756
1256.845342	667.7999878
1257.389785	664.4000244
1257.934172	664.5999756
1258.478502	669.0
1259.022776	672.5999756
1259.566994	675.0
1260.111156	679.5999756
1260.655261	667.2000122
1261.199311	666.7999878
1261.743304	672.5999756
1262.28724	670.5999756
1262.831121	676.7999878
1263.374945	678.4000244
1263.918713	694.0
1264.462425	708.7999878
1265.006081	737.5999756
1265.54968	723.0
1266.093223	693.0
1266.636711	677.7999878
1267.180141	673.4000244
1267.723516	671.5999756
1268.266835	671.0
1268.810097	669.4000244
1269.353303	666.4000244
1269.896453	666.7999878
1270.439547	667.0
1270.982584	669.0
1271.525566	669.0
1272.068491	665.5999756
1272.61136	669.4000244
1273.154173	669.4000244
1273.69693	667.5999756
1274.239631	669.5999756
1274.782275	669.7999878
1275.324864	671.4000244
1275.867396	669.0
1276.409872	667.0
1276.952292	670.5999756
1277.494656	669.4000244
1278.036964	670.0
1278.579215	669.7999878
1279.121411	670.5999756
1279.66355	672.5999756
1280.205634	672.7999878
1280.747661	676.7999878
1281.289632	677.2000122
1281.831547	679.7999878
1282.373406	689.7999878
1282.915209	701.7999878
1283.456955	738.4000244
1283.998646	820.4000244
1284.540281	1095.599976
1285.081859	1664.599976
1285.623381	1506.0
1286.164848	956.5999756
1286.706258	758.5999756
1287.247612	713.4000244
1287.788911	689.7999878
1288.330153	686.7999878
1288.871339	680.7999878
1289.412469	677.4000244
1289.953543	674.5999756
1290.494561	672.7999878
1291.035523	670.5999756
1291.576428	673.4000244
1292.117278	669.5999756
1292.658072	670.0
1293.19881	669.2000122
1293.739492	668.0
1294.280118	669.2000122
1294.820687	667.2000122
1295.361201	670.7999878
1295.901659	667.4000244
1296.442061	667.4000244
1296.982406	665.5999756
1297.522696	668.2000122
1298.06293	668.5999756
1298.603108	670.0
1299.143229	664.7999878
1299.683295	667.5999756
1300.223305	665.2000122
1300.763259	667.4000244
1301.303157	664.5999756
1301.842999	666.4000244
1302.382785	666.4000244
1302.922515	666.5999756
1303.462189	666.7999878
1304.001807	667.4000244
1304.541369	669.2000122
1305.080875	664.7999878
1305.620326	665.7999878
1306.15972	669.2000122
1306.699058	667.7999878
1307.238341	669.2000122
1307.777567	665.7999878
1308.316738	666.0
1308.855853	664.7999878
1309.394912	667.0
1309.933915	669.4000244
1310.472862	667.7999878
1311.011753	667.5999756
1311.550588	664.5999756
1312.089367	665.4000244
1312.62809	666.2000122
1313.166758	666.2000122
1313.70537	666.5999756
1314.243925	667.7999878
1314.782425	668.7999878
1315.320869	663.2000122
1315.859257	665.0
1316.397589	666.0
1316.935866	666.0
1317.474086	668.4000244
1318.012251	666.0
1318.55036	670.7999878
1319.088413	664.4000244
1319.62641	667.0
1320.164351	666.2000122
1320.702236	666.7999878
1321.240066	666.7999878
1321.777839	662.7999878
1322.315557	671.2000122
1322.853219	665.5999756
1323.390826	667.0
1323.928376	670.2000122
1324.465871	664.4000244
1325.003309	663.0
1325.540692	666.0
1326.07802	665.2000122
1326.615291	667.4000244
1327.152506	666.5999756
1327.689666	666.0
1328.22677	666.2000122
1328.763818	662.2000122
1329.300811	663.5999756
1329.837747	663.4000244
1330.374628	663.5999756
1330.911453	668.4000244
1331.448222	666.0
1331.984936	666.7999878
1332.521594	664.5999756
1333.058196	666.7999878
1333.594742	664.7999878
1334.131232	665.2000122
1334.667667	665.0
1335.204046	667.5999756
1335.740369	666.4000244
1336.276637	665.7999878
1336.812848	665.2000122
1337.349004	665.7999878
1337.885105	665.4000244
1338.421149	668.7999878
1338.957138	666.4000244
1339.493071	666.2000122
1340.028949	664.7999878
1340.56477	666.0
1341.100536	666.7999878
1341.636246	663.2000122
1342.171901	668.0
1342.7075	666.5999756
1343.243043	664.5999756
1343.77853	666.0
1344.313962	668.2000122
1344.849338	665.4000244
1345.384659	667.2000122
1345.919923	668.4000244
1346.455133	667.7999878
1346.990286	664.5999756
1347.525384	666.2000122
1348.060426	666.0
1348.595412	667.7999878
1349.130343	665.7999878
1349.665218	664.2000122
1350.200037	668.7999878
1350.734801	668.4000244
1351.269509	668.5999756
1351.804162	666.7999878
1352.338758	667.0
1352.8733	664.4000244
1353.407785	665.5999756
1353.942215	665.5999756
1354.476589	668.4000244
1355.010908	664.7999878
1355.545171	669.5999756
1356.079379	664.4000244
1356.61353	667.5999756
1357.147627	664.7999878
1357.681667	667.4000244
1358.215652	666.4000244
1358.749582	667.0
1359.283456	666.4000244
1359.817274	668.4000244
1360.351037	667.4000244
1360.884744	666.7999878
1361.418395	665.4000244
1361.951991	664.7999878
1362.485531	668.0
1363.019016	667.5999756
1363.552445	668.5999756
1364.085819	665.7999878
1364.619137	666.2000122
1365.1524	668.4000244
1365.685607	667.2000122
1366.218758	672.7999878
1366.751854	670.4000244
1367.284894	671.2000122
1367.817879	666.2000122
1368.350808	670.7999878
1368.883682	667.0
1369.4165	669.2000122
1369.949263	686.4000244
1370.48197	700.4000244
1371.014622	678.5999756
1371.547218	664.2000122
1372.079758	671.2000122
1372.612244	671.2000122
1373.144673	669.2000122
1373.677047	665.5999756
1374.209366	667.5999756
1374.741629	669.0
1375.273836	669.5999756
1375.805989	669.7999878
1376.338085	670.4000244
1376.870126	669.7999878
1377.402112	668.5999756
1377.934042	670.0
1378.465917	668.0
1378.997736	672.5999756
1379.5295	668.7999878
1380.061208	670.5999756
1380.592861	672.5999756
1381.124459	668.7999878
1381.656	673.5999756
1382.187487	674.7999878
1382.718918	670.4000244
1383.250294	675.0
1383.781614	677.2000122
1384.312879	682.0
1384.844088	685.7999878
1385.375242	691.4000244
1385.90634	702.7999878
1386.437383	717.4000244
1386.968371	760.2000122
1387.499303	881.4000244
1388.03018	1465.599976
1388.561001	2535.800049
1389.091767	1840.800049
1389.622478	956.7999878
1390.153133	757.5999756
1390.683733	717.2000122
1391.214277	699.7999878
1391.744766	689.2000122
1392.2752	680.5999756
1392.805578	677.7999878
1393.335901	675.4000244
1393.866168	675.5999756
1394.396381	673.5999756
1394.926537	670.4000244
1395.456639	670.4000244
1395.986685	670.7999878
1396.516675	670.7999878
1397.046611	668.5999756
1397.576491	670.4000244
1398.106315	671.4000244
1398.636084	670.4000244
1399.165798	671.0
1399.695457	669.7999878
1400.22506	669.7999878
1400.754608	670.0
1401.284101	671.7999878
1401.813538	670.0
1402.34292	669.4000244
1402.872247	670.4000244
1403.401518	668.2000122
1403.930734	668.2000122
1404.459895	667.7999878
1404.989	672.0
1405.51805	671.2000122
1406.047045	671.2000122
1406.575984	672.4000244
1407.104869	674.7999878
1407.633697	677.7999878
1408.162471	684.7999878
1408.691189	693.4000244
1409.219852	729.0
1409.74846	788.4000244
1410.277013	791.0
1410.80551	725.4000244
1411.333952	693.4000244
1411.862339	674.4000244
1412.39067	674.4000244
1412.918946	669.4000244
1413.447167	672.2000122
1413.975333	667.0
1414.503444	671.0
1415.031499	668.2000122
1415.559499	678.5999756
1416.087444	665.5999756
1416.615333	663.5999756
1417.143167	668.7999878
1417.670947	666.5999756
1418.19867	665.2000122
1418.726339	666.0
1419.253952	664.5999756
1419.781511	664.0
1420.309014	664.7999878
1420.836461	664.5999756
1421.363854	666.5999756
1421.891191	665.7999878
1422.418474	665.2000122
1422.945701	669.0
1423.472872	667.7999878
1423.999989	666.4000244
1424.52705	667.4000244
1425.054057	669.4000244
1425.581008	668.7999878
1426.107904	666.5999756
1426.634745	671.5999756
1427.16153	665.5999756
1427.688261	665.4000244
1428.214936	666.7999878
1428.741556	663.7999878
1429.268121	666.2000122
1429.794631	664.7999878
1430.321085	665.5999756
1430.847485	663.7999878
1431.373829	664.5999756
1431.900118	665.2000122
1432.426353	664.2000122
1432.952532	665.4000244
1433.478655	662.0
1434.004724	664.2000122
1434.530738	664.7999878
1435.056696	662.7999878
1435.5826	663.5999756
1436.108448	663.0
1436.634241	661.2000122
1437.159979	663.2000122
1437.685662	662.7999878
1438.21129	664.2000122
1438.736863	663.5999756
1439.262381	662.5999756
1439.787843	659.7999878
1440.313251	664.0
1440.838603	662.2000122
1441.3639	662.5999756
1441.889143	663.2000122
1442.41433	662.4000244
1442.939462	662.5999756
1443.464539	662.0
1443.989561	661.4000244
1444.514528	662.5999756
1445.03944	663.2000122
1445.564297	662.0
1446.089099	661.7999878
1446.613846	662.7999878
1447.138537	664.4000244
1447.663174	662.2000122
1448.187756	661.5999756
1448.712282	661.0
1449.236754	664.0
1449.761171	660.7999878
1450.285532	661.7999878
1450.809839	662.7999878
1451.33409	660.2000122
1451.858287	664.0
1452.382428	663.0
1452.906515	662.5999756
1453.430546	659.7999878
1453.954523	660.2000122
1454.478444	661.2000122
1455.002311	661.0
1455.526123	662.4000244
1456.049879	660.4000244
1456.573581	661.5999756
1457.097227	660.4000244
1457.620819	659.4000244
1458.144356	661.7999878
1458.667837	659.0
1459.191264	662.5999756
1459.714636	662.2000122
1460.237952	660.2000122
1460.761214	660.0
1461.284421	664.7999878
1461.807573	661.2000122
1462.33067	660.4000244
1462.853712	659.5999756
1463.376699	662.7999878
1463.899632	660.0
1464.422509	660.5999756
1464.945331	663.5999756
1465.468099	664.2000122
1465.990811	659.4000244
1466.513469	658.0
1467.036071	658.5999756
1467.558619	659.0
1468.081112	658.2000122
1468.60355	658.0
1469.125933	663.7999878
1469.648261	660.5999756
1470.170534	663.5999756
1470.692752	658.5999756
1471.214916	661.0
1471.737024	661.2000122
1472.259078	658.5999756
1472.781077	661.2000122
1473.303021	661.2000122
1473.82491	661.7999878
1474.346744	662.2000122
1474.868523	661.5999756
1475.390248	660.0
1475.911917	661.0
1476.433532	662.0
1476.955092	657.7999878
1477.476597	659.0
1477.998047	661.5999756
1478.519442	660.0
1479.040783	660.0
1479.562068	660.4000244
1480.083299	662.4000244
1480.604475	657.7999878
1481.125596	661.0
1481.646663	657.5999756
1482.167674	658.2000122
1482.688631	661.4000244
1483.209533	662.0
1483.73038	660.4000244
1484.251172	659.4000244
1484.771909	660.4000244
1485.292592	658.7999878
1485.81322	660.7999878
1486.333793	659.7999878
1486.854311	659.2000122
1487.374775	660.2000122
1487.895183	659.4000244
1488.415537	659.7999878
1488.935836	663.4000244
1489.456081	661.5999756
1489.97627	657.2000122
1490.496405	661.5999756
1491.016485	660.7999878
1491.536511	660.7999878
1492.056481	659.2000122
1492.576397	662.0
1493.096258	655.4000244
1493.616064	659.5999756
1494.135816	659.5999756
1494.655513	658.5999756
1495.175155	659.0
1495.694742	660.4000244
1496.214274	657.7999878
1496.733752	662.0
1497.253175	659.7999878
1497.772544	660.7999878
1498.291858	659.2000122
1498.811116	662.5999756
1499.330321	659.5999756
1499.84947	663.5999756
1500.368565	663.2000122
1500.887605	660.2000122
1501.406591	660.5999756
1501.925521	661.0
1502.444397	659.4000244
1502.963219	660.2000122
1503.481985	658.7999878
1504.000697	661.7999878
1504.519355	659.4000244
1505.037957	660.0
1505.556505	659.0
1506.074999	657.4000244
1506.593437	659.7999878
1507.111821	658.2000122
1507.63015	659.2000122
1508.148425	659.4000244
1508.666645	658.2000122
1509.18481	659.2000122
1509.702921	659.7999878
1510.220977	656.7999878
1510.738979	665.5999756
1511.256925	660.0
1511.774817	660.4000244
1512.292655	659.5999756
1512.810438	660.0
1513.328166	660.2000122
1513.84584	658.5999756
1514.363459	657.5999756
1514.881023	659.5999756
1515.398533	658.7999878
1515.915988	658.5999756
1516.433389	659.5999756
1516.950734	658.0
1517.468026	656.5999756
1517.985263	660.0
1518.502445	659.5999756
1519.019572	657.2000122
1519.536645	658.0
1520.053664	659.0
1520.570628	660.0
1521.087537	660.4000244
1521.604392	661.4000244
1522.121192	658.7999878
1522.637937	657.7999878
1523.154628	658.7999878
1523.671265	661.0
1524.187847	659.7999878
1524.704374	660.0
1525.220847	657.4000244
1525.737265	659.0
1526.253629	660.4000244
1526.769938	658.5999756
1527.286192	658.4000244
1527.802392	657.7999878
1528.318538	660.5999756
1528.834629	658.7999878
1529.350666	657.7999878
1529.866648	658.0
1530.382575	659.7999878
1530.898448	660.2000122
1531.414266	661.2000122
1531.93003	661.0
1532.44574	658.0
1532.961395	657.4000244
1533.476995	658.2000122
1533.992541	659.5999756
1534.508033	657.4000244
1535.02347	659.5999756
1535.538852	660.0
1536.05418	659.2000122
1536.569454	658.2000122
1537.084673	659.4000244
1537.599837	657.5999756
1538.114947	661.0
1538.630003	657.5999756
1539.145004	658.2000122
1539.659951	661.4000244
1540.174843	659.0
1540.689681	656.7999878
1541.204465	661.0
1541.719194	657.7999878
1542.233868	660.7999878
1542.748488	657.0
1543.263054	659.7999878
1543.777565	658.7999878
1544.292022	657.4000244
1544.806424	660.0
1545.320772	658.4000244
1545.835066	657.0
1546.349305	659.5999756
1546.863489	658.0
1547.37762	660.7999878
1547.891696	660.0
1548.405717	660.7999878
1548.919684	658.4000244
1549.433597	660.7999878
1549.947455	659.7999878
1550.461259	659.0
1550.975009	661.2000122
1551.488704	656.7999878
1552.002345	658.5999756
1552.515931	659.2000122
1553.029463	659.5999756
1553.542941	658.5999756
1554.056364	661.4000244
1554.569733	658.5999756
1555.083048	657.4000244
1555.596308	660.7999878
1556.109514	658.0
1556.622665	659.4000244
1557.135762	656.5999756
1557.648805	659.4000244
1558.161794	658.0
1558.674728	658.4000244
1559.187608	658.5999756
1559.700433	659.4000244
1560.213205	659.4000244
1560.725921	657.5999756
1561.238584	660.0
1561.751192	659.0
1562.263746	658.4000244
1562.776246	659.7999878
1563.288691	660.7999878
1563.801082	659.5999756
1564.313419	659.2000122
1564.825701	660.7999878
1565.337929	660.7999878
1565.850103	658.2000122
1566.362223	658.5999756
1566.874288	657.7999878
1567.386299	660.5999756
1567.898256	658.0
1568.410158	659.0
1568.922007	657.7999878
1569.4338	661.7999878
1569.94554	658.0
1570.457226	660.7999878
1570.968857	659.2000122
1571.480434	658.2000122
1571.991956	658.5999756
1572.503425	659.5999756
1573.014839	660.0
1573.526199	660.5999756
1574.037505	659.7999878
1574.548756	659.0
1575.059953	657.2000122
1575.571096	661.2000122
1576.082185	659.0
1576.59322	659.0
1577.1042	658.2000122
1577.615126	659.0
1578.125998	656.2000122
1578.636816	660.2000122
1579.14758	661.5999756
1579.658289	659.5999756
1580.168944	658.5999756
1580.679545	659.2000122
1581.190092	660.4000244
1581.700585	657.0
1582.211023	656.4000244
1582.721407	659.2000122
1583.231737	660.0
1583.742013	659.7999878
1584.252235	658.4000244
1584.762403	658.7999878
1585.272516	658.5999756
1585.782575	658.0
1586.292581	660.0
1586.802532	661.0
1587.312428	658.4000244
1587.822271	660.7999878
1588.33206	657.7999878
1588.841794	660.0
1589.351474	657.4000244
1589.8611	657.4000244
1590.370672	657.5999756
1590.88019	658.0
1591.389654	656.4000244
1591.899064	656.0
1592.408419	657.0
