1042.452273	1620.400024
1043.018714	1625.199951
1043.585098	1613.0
1044.151424	1609.0
1044.717692	1595.599976
1045.283903	1619.599976
1045.850056	1601.0
1046.416151	1616.800049
1046.982188	1603.599976
1047.548167	1611.599976
1048.114089	1612.400024
1048.679953	1603.599976
1049.24576	1606.0
1049.811509	1600.0
1050.3772	1588.599976
1050.942833	1594.800049
1051.508408	1599.199951
1052.073926	1610.0
1052.639387	1607.199951
1053.204789	1602.599976
1053.770134	1609.0
1054.335421	1598.400024
1054.900651	1580.800049
1055.465823	1598.400024
1056.030937	1604.599976
1056.595993	1595.800049
1057.160992	1593.199951
1057.725934	1586.800049
1058.290817	1590.199951
1058.855643	1594.800049
1059.420411	1613.199951
1059.985122	1595.199951
1060.549775	1573.0
1061.114371	1587.599976
1061.678908	1578.400024
1062.243389	1615.0
1062.807811	1592.400024
1063.372176	1594.599976
1063.936483	1599.400024
1064.500733	1596.800049
1065.064925	1573.800049
1065.62906	1589.0
1066.193137	1596.199951
1066.757156	1606.800049
1067.321118	1582.400024
1067.885022	1575.0
1068.448869	1592.599976
1069.012658	1576.599976
1069.57639	1583.199951
1070.140063	1587.400024
1070.70368	1580.599976
1071.267239	1582.800049
1071.83074	1589.800049
1072.394184	1592.199951
1072.95757	1587.199951
1073.520899	1577.199951
1074.08417	1577.199951
1074.647383	1573.800049
1075.21054	1563.400024
1075.773638	1580.199951
1076.336679	1574.599976
1076.899663	1571.0
1077.462589	1583.199951
1078.025457	1588.800049
1078.588268	1566.800049
1079.151022	1582.0
1079.713718	1565.599976
1080.276356	1576.199951
1080.838937	1573.0
1081.401461	1586.800049
1081.963927	1570.400024
1082.526336	1574.599976
1083.088687	1564.199951
1083.650981	1564.0
1084.213217	1566.599976
1084.775396	1568.800049
1085.337517	1560.0
1085.899581	1575.0
1086.461587	1579.599976
1087.023536	1559.599976
1087.585428	1547.400024
1088.147262	1562.0
1088.709039	1563.400024
1089.270758	1556.599976
1089.83242	1562.0
1090.394024	1585.800049
1091.517061	1570.599976
1092.078493	1543.800049
1092.639868	1560.0
1093.201185	1557.800049
1093.762445	1550.800049
1094.323648	1565.199951
1094.884793	1556.599976
1095.445881	1546.599976
1096.006911	1545.400024
1096.567884	1548.400024
1097.1288	1553.0
1097.689659	1548.599976
1098.25046	1547.0
1098.811203	1541.0
1099.37189	1548.599976
1099.932518	1550.800049
1100.49309	1542.199951
1101.053604	1538.199951
1101.614061	1551.0
1102.174461	1531.0
1102.734803	1535.199951
1103.295088	1550.199951
1103.855316	1541.599976
1104.415486	1531.199951
1104.975599	1527.199951
1105.535655	1527.800049
1106.095653	1540.800049
1106.655594	1537.0
1107.215478	1538.199951
1107.775305	1514.599976
1108.335074	1530.800049
1108.894786	1526.599976
1109.45444	1532.599976
1110.014038	1498.0
1110.573578	1522.0
1111.133061	1521.599976
1111.692486	1530.400024
1112.251854	1537.400024
1112.811165	1527.199951
1113.370419	1523.400024
1113.929616	1526.800049
1114.488755	1509.800049
1115.047837	1519.0
1115.606862	1512.800049
1116.16583	1539.199951
1116.72474	1519.199951
1117.283593	1524.599976
1117.842389	1515.599976
1118.401128	1502.400024
1118.959809	1500.800049
1119.518433	1513.199951
1120.077	1505.599976
1120.63551	1523.400024
1121.193963	1502.599976
1121.752358	1514.400024
1122.310697	1533.800049
1122.868978	1508.599976
1123.427202	1513.199951
1123.985368	1520.199951
1124.543478	1496.199951
1125.10153	1514.599976
1125.659526	1521.199951
1126.217464	1521.800049
1126.775345	1500.400024
1127.333168	1497.599976
1127.890935	1518.400024
1128.448644	1513.199951
1129.006297	1502.199951
1129.563892	1520.0
1130.12143	1498.400024
1130.678911	1504.400024
1131.236335	1487.400024
1131.793701	1523.400024
1132.351011	1494.800049
1132.908263	1505.400024
1133.465458	1514.800049
1134.022597	1506.599976
1134.579678	1502.199951
1135.136702	1507.599976
1135.693669	1495.199951
1136.250578	1501.0
1136.807431	1495.800049
1137.364227	1507.800049
1137.920965	1499.800049
1138.477647	1510.199951
1139.034271	1497.599976
1139.590839	1496.0
1140.147349	1505.800049
1140.703802	1499.800049
1141.260198	1522.199951
1141.816537	1516.800049
1142.37282	1493.400024
1142.929045	1514.0
1143.485213	1516.0
1144.041323	1496.400024
1144.597377	1516.400024
1145.153374	1508.400024
1145.709314	1501.800049
1146.265197	1511.800049
1146.821023	1503.599976
1147.376792	1501.199951
1147.932503	1514.0
1148.488158	1513.199951
1149.043756	1510.199951
1149.599297	1513.400024
1150.154781	1546.199951
1150.710207	1549.0
1151.265577	1536.800049
1151.82089	1508.800049
1152.376146	1508.800049
1152.931345	1513.599976
1153.486487	1503.199951
1154.041572	1491.800049
1154.5966	1503.0
1155.151571	1515.0
1155.706485	1490.199951
1156.261342	1507.199951
1156.816142	1491.800049
1157.370885	1500.400024
1157.925572	1497.199951
1158.480201	1485.400024
1159.034774	1503.800049
1159.589289	1503.800049
1160.143748	1509.400024
1160.698149	1507.0
1161.252494	1495.400024
1161.806782	1488.199951
1162.361013	1501.0
1162.915187	1512.400024
1163.469304	1489.400024
1164.023364	1479.599976
1164.577368	1502.800049
1165.131314	1491.599976
1165.685204	1496.0
1166.239036	1493.0
1166.792812	1495.400024
1167.346531	1507.400024
1167.900193	1507.0
1168.453798	1504.599976
1169.007347	1504.599976
1169.560838	1506.0
1170.114273	1495.599976
1170.66765	1485.800049
1171.220971	1504.199951
1171.774235	1494.400024
1172.327443	1481.199951
1172.880593	1492.599976
1173.433687	1500.800049
1173.986723	1493.0
1174.539703	1483.0
1175.092626	1483.400024
1175.645493	1482.199951
1176.198302	1489.800049
1176.751055	1496.599976
1177.303751	1499.599976
1177.85639	1490.199951
1178.408972	1485.800049
1178.961498	1497.599976
1179.513966	1487.199951
1180.066378	1473.800049
1180.618733	1494.400024
1181.171032	1494.800049
1181.723273	1478.599976
1182.275458	1489.800049
1182.827586	1486.599976
1183.379657	1484.599976
1183.931672	1484.800049
1184.48363	1481.0
1185.035531	1488.199951
1185.587375	1496.0
1186.139162	1482.599976
1186.690893	1487.199951
1187.242567	1481.199951
1187.794184	1493.800049
1188.345745	1479.599976
1188.897249	1488.800049
1189.448696	1473.599976
1190.000086	1483.400024
1190.55142	1474.800049
1191.102697	1483.400024
1191.653918	1486.800049
1192.205081	1486.400024
1192.756188	1487.400024
1193.307238	1493.800049
1193.858232	1475.199951
1194.409169	1488.800049
1194.960049	1473.400024
1195.510872	1465.800049
1196.061639	1473.0
1196.612349	1460.199951
1197.163003	1466.400024
1197.713599	1476.400024
1198.264139	1482.400024
1198.814623	1462.0
1199.36505	1477.599976
1199.91542	1479.599976
1200.465734	1453.0
1201.01599	1463.199951
1201.566191	1470.199951
1202.116334	1464.400024
1202.666421	1468.400024
1203.216452	1468.199951
1203.766425	1457.800049
1204.316343	1468.0
1204.866203	1467.0
1205.416007	1472.599976
1205.965754	1460.199951
1206.515445	1470.400024
1207.065079	1451.800049
1207.614657	1458.599976
1208.164177	1467.400024
1208.713642	1446.0
1209.26305	1454.599976
1209.812401	1465.400024
1210.361695	1442.0
1210.910933	1457.599976
1211.460115	1460.800049
1212.00924	1459.599976
1212.558308	1450.0
1213.10732	1458.0
1213.656275	1454.800049
1214.205174	1457.400024
1214.754016	1456.400024
1215.302801	1450.800049
1215.85153	1446.400024
1216.400203	1446.599976
1216.948819	1448.400024
1217.497378	1448.400024
1218.045881	1450.0
1218.594327	1448.599976
1219.142717	1451.0
1219.691051	1465.800049
1220.239327	1449.800049
1220.787548	1458.400024
1221.335712	1431.599976
1221.883819	1444.400024
1222.43187	1456.400024
1222.979864	1460.599976
1223.527802	1451.400024
1224.075683	1457.800049
1224.623508	1451.599976
1225.171277	1431.599976
1225.718989	1453.0
1226.266644	1439.800049
1226.814243	1442.599976
1227.361786	1437.0
1227.909272	1424.599976
1228.456702	1458.199951
1229.004075	1456.599976
1229.551392	1442.400024
1230.098652	1452.400024
1230.645856	1444.599976
1231.193003	1438.599976
1231.740094	1433.199951
1232.287129	1440.599976
1232.834107	1428.599976
1233.381029	1435.800049
1233.927894	1448.400024
1234.474703	1436.199951
1235.021455	1445.199951
1235.568151	1437.400024
1236.114791	1457.800049
1236.661374	1456.199951
1237.207901	1437.599976
1237.754372	1447.800049
1238.300786	1439.0
1238.847144	1432.199951
1239.393445	1448.400024
1239.93969	1443.0
1240.485879	1442.599976
1241.032011	1447.400024
1241.578087	1433.0
1242.124106	1423.599976
1242.67007	1431.599976
1243.215976	1428.0
1243.761827	1433.199951
1244.307621	1453.0
1244.853359	1436.400024
1245.39904	1434.400024
1245.944665	1442.599976
1246.490234	1436.400024
1247.035746	1430.400024
1247.581203	1445.599976
1248.126602	1442.800049
1248.671946	1438.199951
1249.217233	1429.599976
1249.762464	1428.400024
1250.307638	1429.199951
1250.852757	1430.400024
1251.397819	1426.599976
1251.942824	1418.400024
1252.487774	1443.599976
1253.032667	1413.800049
1253.577503	1427.599976
1254.122284	1427.599976
1254.667008	1413.599976
1255.211676	1432.800049
1255.756288	1430.199951
1256.300843	1424.0
1256.845342	1423.599976
1257.389785	1423.400024
1257.934172	1438.0
1258.478502	1442.199951
1259.022776	1425.599976
1259.566994	1429.199951
1260.111156	1422.599976
1260.655261	1439.599976
1261.199311	1427.800049
1261.743304	1414.800049
1262.28724	1422.199951
1262.831121	1427.400024
1263.374945	1424.400024
1263.918713	1438.0
1264.462425	1443.400024
1265.006081	1440.599976
1265.54968	1441.199951
1266.093223	1430.800049
1266.636711	1431.800049
1267.180141	1420.0
1267.723516	1436.800049
1268.266835	1422.0
1268.810097	1427.800049
1269.353303	1419.800049
1269.896453	1404.800049
1270.439547	1421.800049
1270.982584	1428.0
1271.525566	1415.0
1272.068491	1418.599976
1272.61136	1425.0
1273.154173	1436.0
1273.69693	1425.0
1274.239631	1423.0
1274.782275	1404.199951
1275.324864	1409.0
1275.867396	1421.199951
1276.409872	1410.800049
1276.952292	1412.400024
1277.494656	1410.199951
1278.036964	1421.599976
1278.579215	1426.400024
1279.121411	1418.400024
1279.66355	1408.599976
1280.205634	1424.400024
1280.747661	1411.199951
1281.289632	1411.0
1281.831547	1414.400024
1282.373406	1421.599976
1282.915209	1443.400024
1283.456955	1475.599976
1283.998646	1546.199951
1284.540281	1663.800049
1285.081859	1694.599976
1285.623381	1542.0
1286.164848	1456.800049
1286.706258	1431.599976
1287.247612	1416.0
1287.788911	1414.199951
1288.330153	1408.800049
1288.871339	1402.800049
1289.412469	1399.599976
1289.953543	1406.599976
1290.494561	1395.199951
1291.035523	1407.400024
1291.576428	1393.0
1292.117278	1413.0
1292.658072	1399.400024
1293.19881	1407.400024
1293.739492	1401.800049
1294.280118	1390.400024
1294.820687	1403.800049
1295.361201	1397.599976
1295.901659	1411.599976
1296.442061	1407.0
1296.982406	1389.199951
1297.522696	1404.199951
1298.06293	1397.400024
1298.603108	1399.199951
1299.143229	1396.800049
1299.683295	1391.400024
1300.223305	1401.400024
1300.763259	1401.0
1301.303157	1401.800049
1301.842999	1409.199951
1302.382785	1395.199951
1302.922515	1393.599976
1303.462189	1389.800049
1304.001807	1398.400024
1304.541369	1397.0
1305.080875	1381.800049
1305.620326	1390.400024
1306.15972	1378.199951
1306.699058	1387.400024
1307.238341	1387.800049
1307.777567	1406.800049
1308.316738	1377.800049
1308.855853	1390.0
1309.394912	1391.0
1309.933915	1400.199951
1310.472862	1384.0
1311.011753	1380.800049
1311.550588	1387.599976
1312.089367	1389.400024
1312.62809	1382.199951
1313.166758	1392.199951
1313.70537	1387.800049
1314.243925	1384.0
1314.782425	1384.599976
1315.320869	1389.599976
1315.859257	1387.199951
1316.397589	1390.800049
1316.935866	1385.400024
1317.474086	1367.0
1318.012251	1379.0
1318.55036	1377.199951
1319.088413	1388.199951
1319.62641	1389.599976
1320.164351	1385.199951
1320.702236	1378.800049
1321.240066	1383.400024
1321.777839	1380.800049
1322.315557	1392.0
1322.853219	1385.199951
1323.390826	1391.199951
1323.928376	1369.400024
1324.465871	1367.199951
1325.003309	1383.0
1325.540692	1367.400024
1326.07802	1382.400024
1326.615291	1362.800049
1327.152506	1371.800049
1327.689666	1373.199951
1328.22677	1379.800049
1328.763818	1381.800049
1329.300811	1378.0
1329.837747	1377.599976
1330.374628	1372.199951
1330.911453	1369.400024
1331.448222	1363.800049
1331.984936	1389.199951
1332.521594	1368.599976
1333.058196	1369.599976
1333.594742	1372.0
1334.131232	1363.199951
1334.667667	1363.0
1335.204046	1381.0
1335.740369	1364.599976
1336.276637	1373.199951
1336.812848	1354.599976
1337.349004	1379.0
1337.885105	1364.800049
1338.421149	1366.199951
1338.957138	1362.800049
1339.493071	1364.0
1340.028949	1367.800049
1340.56477	1354.199951
1341.100536	1365.599976
1341.636246	1358.800049
1342.171901	1364.199951
1342.7075	1370.199951
1343.243043	1367.400024
1343.77853	1369.0
1344.313962	1363.199951
1344.849338	1361.800049
1345.384659	1363.400024
1345.919923	1362.599976
1346.455133	1368.0
1346.990286	1358.199951
1347.525384	1357.0
1348.060426	1366.400024
1348.595412	1374.0
1349.130343	1359.599976
1349.665218	1367.599976
1350.200037	1367.800049
1350.734801	1363.599976
1351.269509	1353.599976
1351.804162	1353.0
1352.338758	1362.599976
1352.8733	1351.0
1353.407785	1357.800049
1353.942215	1350.0
1354.476589	1368.800049
1355.010908	1349.800049
1355.545171	1361.0
1356.079379	1345.199951
1356.61353	1366.800049
1357.147627	1353.400024
1357.681667	1351.400024
1358.215652	1352.599976
1358.749582	1359.599976
1359.283456	1349.199951
1359.817274	1358.0
1360.351037	1360.599976
1360.884744	1350.199951
1361.418395	1348.599976
1361.951991	1350.0
1362.485531	1344.800049
1363.019016	1335.400024
1363.552445	1355.400024
1364.085819	1344.599976
1364.619137	1364.0
1365.1524	1364.400024
1365.685607	1343.400024
1366.218758	1344.800049
1366.751854	1358.0
1367.284894	1346.199951
1367.817879	1347.800049
1368.350808	1354.800049
1368.883682	1350.199951
1369.4165	1350.199951
1369.949263	1363.0
1370.48197	1359.199951
1371.014622	1353.800049
1371.547218	1350.800049
1372.079758	1357.0
1372.612244	1355.0
1373.144673	1344.0
1373.677047	1349.800049
1374.209366	1354.599976
1374.741629	1346.0
1375.273836	1335.800049
1375.805989	1344.800049
1376.338085	1334.800049
1376.870126	1347.400024
1377.402112	1336.199951
1377.934042	1349.599976
1378.465917	1341.0
1378.997736	1349.0
1379.5295	1342.800049
1380.061208	1349.400024
1380.592861	1338.800049
1381.124459	1357.599976
1381.656	1349.0
1382.187487	1344.800049
1382.718918	1336.199951
1383.250294	1348.800049
1383.781614	1344.199951
1384.312879	1352.599976
1384.844088	1350.0
1385.375242	1333.400024
1385.90634	1361.199951
1386.437383	1352.400024
1386.968371	1411.400024
1387.499303	1514.400024
1388.03018	1807.199951
1388.561001	1861.599976
1389.091767	1564.400024
1389.622478	1413.800049
1390.153133	1364.599976
1390.683733	1343.0
1391.214277	1346.599976
1391.744766	1342.400024
1392.2752	1337.199951
1392.805578	1334.0
1393.335901	1337.800049
1393.866168	1337.400024
1394.396381	1335.800049
1394.926537	1329.599976
1395.456639	1333.0
1395.986685	1329.599976
1396.516675	1331.800049
1397.046611	1323.0
1397.576491	1334.199951
1398.106315	1327.199951
1398.636084	1337.0
1399.165798	1339.400024
1399.695457	1332.800049
1400.22506	1330.800049
1400.754608	1329.400024
1401.284101	1337.199951
1401.813538	1322.199951
1402.34292	1328.199951
1402.872247	1334.800049
1403.401518	1322.400024
1403.930734	1333.0
1404.459895	1337.0
1404.989	1333.199951
1405.51805	1323.0
1406.047045	1334.800049
1406.575984	1339.400024
1407.104869	1345.0
1407.633697	1335.0
1408.162471	1347.199951
1408.691189	1342.599976
1409.219852	1333.800049
1409.74846	1359.800049
1410.277013	1358.400024
1410.80551	1345.599976
1411.333952	1325.199951
1411.862339	1323.599976
1412.39067	1317.0
1412.918946	1321.400024
1413.447167	1334.400024
1413.975333	1323.400024
1414.503444	1328.800049
1415.031499	1333.800049
1415.559499	1336.199951
1416.087444	1326.199951
1416.615333	1333.0
1417.143167	1321.199951
1417.670947	1328.400024
1418.19867	1324.599976
1418.726339	1317.599976
1419.253952	1322.599976
1419.781511	1313.800049
1420.309014	1312.199951
1420.836461	1326.199951
1421.363854	1312.599976
1421.891191	1331.599976
1422.418474	1329.400024
1422.945701	1325.599976
1423.472872	1314.0
1423.999989	1318.800049
1424.52705	1311.0
1425.054057	1324.0
1425.581008	1326.199951
1426.107904	1321.0
1426.634745	1325.800049
1427.16153	1309.599976
1427.688261	1323.400024
1428.214936	1315.0
1428.741556	1331.199951
1429.268121	1309.400024
1429.794631	1321.800049
1430.321085	1313.400024
1430.847485	1327.800049
1431.373829	1310.400024
1431.900118	1313.0
1432.426353	1315.599976
1432.952532	1322.400024
1433.478655	1323.800049
1434.004724	1311.199951
1434.530738	1310.0
1435.056696	1304.800049
1435.5826	1310.0
1436.108448	1312.0
1436.634241	1309.599976
1437.159979	1307.0
1437.685662	1298.400024
1438.21129	1305.199951
1438.736863	1296.199951
1439.262381	1296.199951
1439.787843	1319.0
1440.313251	1310.599976
1440.838603	1304.199951
1441.3639	1302.199951
1441.889143	1302.599976
1442.41433	1306.800049
1442.939462	1298.400024
1443.464539	1296.400024
1443.989561	1307.599976
1444.514528	1291.800049
1445.03944	1311.800049
1445.564297	1309.400024
1446.089099	1310.599976
1446.613846	1321.599976
1447.138537	1300.800049
1447.663174	1309.800049
1448.187756	1301.199951
1448.712282	1310.400024
1449.236754	1310.599976
1449.761171	1306.0
1450.285532	1298.400024
1450.809839	1313.400024
1451.33409	1305.400024
1451.858287	1305.199951
1452.382428	1294.400024
1452.906515	1300.400024
1453.430546	1303.0
1453.954523	1317.0
1454.478444	1317.800049
1455.002311	1301.199951
1455.526123	1296.800049
1456.049879	1303.599976
1456.573581	1301.599976
1457.097227	1298.199951
1457.620819	1294.0
1458.144356	1292.199951
1458.667837	1300.400024
1459.191264	1289.199951
1459.714636	1303.199951
1460.237952	1298.0
1460.761214	1299.400024
1461.284421	1310.199951
1461.807573	1310.0
1462.33067	1292.599976
1462.853712	1287.199951
1463.376699	1314.0
1463.899632	1289.800049
1464.422509	1281.599976
1464.945331	1281.400024
1465.468099	1294.800049
1465.990811	1286.400024
1466.513469	1310.199951
1467.036071	1302.199951
1467.558619	1286.599976
1468.081112	1289.800049
1468.60355	1287.800049
1469.125933	1300.599976
1469.648261	1298.599976
1470.170534	1300.199951
1470.692752	1287.199951
1471.214916	1276.199951
1471.737024	1278.0
1472.259078	1299.199951
1472.781077	1294.800049
1473.303021	1278.400024
1473.82491	1296.800049
1474.346744	1274.199951
1474.868523	1296.0
1475.390248	1277.599976
1475.911917	1279.599976
1476.433532	1286.400024
1476.955092	1275.0
1477.476597	1265.0
1477.998047	1286.199951
1478.519442	1270.599976
1479.040783	1291.400024
1479.562068	1276.199951
1480.083299	1281.800049
1480.604475	1283.400024
1481.125596	1288.800049
1481.646663	1278.400024
1482.167674	1285.199951
1482.688631	1273.800049
1483.209533	1280.400024
1483.73038	1282.400024
1484.251172	1271.599976
1484.771909	1293.800049
1485.292592	1278.0
1485.81322	1275.400024
1486.333793	1287.800049
1486.854311	1270.400024
1487.374775	1275.599976
1487.895183	1265.800049
1488.415537	1270.800049
1488.935836	1289.800049
1489.456081	1283.199951
1489.97627	1274.599976
1490.496405	1287.199951
1491.016485	1277.800049
1491.536511	1271.599976
1492.056481	1279.400024
1492.576397	1268.0
1493.096258	1271.800049
1493.616064	1272.599976
1494.135816	1272.0
1494.655513	1275.199951
1495.175155	1261.199951
1495.694742	1278.0
1496.214274	1266.800049
1496.733752	1268.800049
1497.253175	1267.199951
1497.772544	1268.199951
1498.291858	1277.599976
1498.811116	1260.0
1499.330321	1270.599976
1499.84947	1278.199951
1500.368565	1265.599976
1500.887605	1265.0
1501.406591	1266.0
1501.925521	1259.199951
1502.444397	1274.800049
1502.963219	1271.199951
1503.481985	1258.400024
1504.000697	1264.800049
1504.519355	1267.599976
1505.037957	1257.0
1505.556505	1259.400024
1506.074999	1263.400024
1506.593437	1244.199951
1507.111821	1263.0
1507.63015	1272.599976
1508.148425	1266.0
1508.666645	1263.400024
1509.18481	1265.599976
1509.702921	1259.0
1510.220977	1263.599976
1510.738979	1264.800049
1511.256925	1269.199951
1511.774817	1269.400024
1512.292655	1252.400024
1512.810438	1276.0
1513.328166	1260.800049
1513.84584	1251.800049
1514.363459	1265.199951
1514.881023	1263.800049
1515.398533	1260.400024
1515.915988	1252.0
1516.433389	1266.800049
1516.950734	1271.800049
1517.468026	1262.0
1517.985263	1259.0
1518.502445	1264.599976
1519.019572	1256.199951
1519.536645	1261.599976
1520.053664	1259.599976
1520.570628	1260.199951
1521.087537	1256.199951
1521.604392	1261.599976
1522.121192	1272.400024
1522.637937	1252.599976
1523.154628	1250.400024
1523.671265	1260.599976
1524.187847	1244.400024
1524.704374	1266.199951
1525.220847	1252.800049
1525.737265	1252.199951
1526.253629	1257.199951
1526.769938	1248.400024
1527.286192	1253.400024
1527.802392	1248.599976
1528.318538	1257.400024
1528.834629	1254.0
1529.350666	1253.599976
1529.866648	1250.800049
1530.382575	1266.800049
1530.898448	1249.0
1531.414266	1241.400024
1531.93003	1269.400024
1532.44574	1260.199951
1532.961395	1265.0
1533.476995	1260.0
1533.992541	1255.800049
1534.508033	1248.199951
1535.02347	1261.199951
1535.538852	1256.0
1536.05418	1252.0
1536.569454	1251.599976
1537.084673	1252.400024
1537.599837	1251.599976
1538.114947	1246.800049
1538.630003	1253.400024
1539.145004	1245.199951
1539.659951	1249.0
1540.174843	1264.199951
1540.689681	1256.400024
1541.204465	1251.0
1541.719194	1259.800049
1542.233868	1257.400024
1542.748488	1260.400024
1543.263054	1243.199951
1543.777565	1247.199951
1544.292022	1246.199951
1544.806424	1259.0
1545.320772	1261.199951
1545.835066	1248.800049
1546.349305	1243.199951
1546.863489	1238.599976
1547.37762	1245.0
1547.891696	1248.400024
1548.405717	1246.800049
1548.919684	1252.0
1549.433597	1256.599976
1549.947455	1242.800049
1550.461259	1239.800049
1550.975009	1255.599976
1551.488704	1254.800049
1552.002345	1262.0
1552.515931	1252.199951
1553.029463	1249.800049
1553.542941	1226.800049
1554.056364	1248.400024
1554.569733	1249.800049
1555.083048	1248.599976
1555.596308	1251.400024
1556.109514	1257.199951
1556.622665	1243.400024
1557.135762	1244.599976
1557.648805	1248.599976
1558.161794	1241.199951
1558.674728	1250.800049
1559.187608	1250.800049
1559.700433	1252.400024
1560.213205	1244.199951
1560.725921	1257.400024
1561.238584	1238.0
1561.751192	1252.199951
1562.263746	1243.400024
1562.776246	1251.0
1563.288691	1239.199951
1563.801082	1240.0
1564.313419	1233.800049
1564.825701	1236.0
1565.337929	1245.800049
1565.850103	1252.599976
1566.362223	1244.0
1566.874288	1245.199951
1567.386299	1241.800049
1567.898256	1243.199951
1568.410158	1236.599976
1568.922007	1234.199951
1569.4338	1247.199951
1569.94554	1247.599976
1570.457226	1246.599976
1570.968857	1242.400024
1571.480434	1247.0
1571.991956	1242.199951
1572.503425	1250.599976
1573.014839	1231.0
1573.526199	1247.400024
1574.037505	1232.199951
1574.548756	1241.400024
1575.059953	1247.0
1575.571096	1230.599976
1576.082185	1243.0
1576.59322	1240.800049
1577.1042	1240.199951
1577.615126	1229.599976
1578.125998	1251.400024
1578.636816	1244.0
1579.14758	1222.0
1579.658289	1239.400024
1580.168944	1217.800049
1580.679545	1232.599976
1581.190092	1237.599976
1581.700585	1236.199951
1582.211023	1231.599976
1582.721407	1225.400024
1583.231737	1230.599976
1583.742013	1251.599976
1584.252235	1250.0
1584.762403	1241.800049
1585.272516	1234.599976
1585.782575	1232.400024
1586.292581	1240.599976
1586.802532	1240.199951
1587.312428	1230.800049
1587.822271	1225.400024
1588.33206	1215.0
1588.841794	1228.199951
1589.351474	1236.400024
1589.8611	1225.199951
1590.370672	1225.199951
1590.88019	1234.599976
1591.389654	1228.400024
1591.899064	1237.0
