 1.042452273E+03	 6.396200195E+03
 1.043018714E+03	 6.368600098E+03
 1.043585098E+03	 6.378200195E+03
 1.044151424E+03	 6.400000000E+03
 1.044717692E+03	 6.375399902E+03
 1.045283903E+03	 6.412799805E+03
 1.045850056E+03	 6.399200195E+03
 1.046416151E+03	 6.383799805E+03
 1.046982188E+03	 6.363799805E+03
 1.047548167E+03	 6.324600098E+03
 1.048114089E+03	 6.372600098E+03
 1.048679953E+03	 6.373000000E+03
 1.049245760E+03	 6.339000000E+03
 1.049811509E+03	 6.334000000E+03
 1.050377200E+03	 6.295399902E+03
 1.050942833E+03	 6.356200195E+03
 1.051508408E+03	 6.295600098E+03
 1.052073926E+03	 6.316399902E+03
 1.052639387E+03	 6.305399902E+03
 1.053204789E+03	 6.301799805E+03
 1.053770134E+03	 6.310200195E+03
 1.054335421E+03	 6.268200195E+03
 1.054900651E+03	 6.287799805E+03
 1.055465823E+03	 6.302600098E+03
 1.056030937E+03	 6.283600098E+03
 1.056595993E+03	 6.312600098E+03
 1.057160992E+03	 6.288600098E+03
 1.057725934E+03	 6.324000000E+03
 1.058290817E+03	 6.260399902E+03
 1.058855643E+03	 6.272399902E+03
 1.059420411E+03	 6.292600098E+03
 1.059985122E+03	 6.244000000E+03
 1.060549775E+03	 6.252600098E+03
 1.061114371E+03	 6.290399902E+03
 1.061678908E+03	 6.280799805E+03
 1.062243389E+03	 6.258799805E+03
 1.062807811E+03	 6.213399902E+03
 1.063372176E+03	 6.248000000E+03
 1.063936483E+03	 6.161600098E+03
 1.064500733E+03	 6.235399902E+03
 1.065064925E+03	 6.216799805E+03
 1.065629060E+03	 6.255799805E+03
 1.066193137E+03	 6.227600098E+03
 1.066757156E+03	 6.255000000E+03
 1.067321118E+03	 6.195600098E+03
 1.067885022E+03	 6.216799805E+03
 1.068448869E+03	 6.180799805E+03
 1.069012658E+03	 6.152799805E+03
 1.069576390E+03	 6.172399902E+03
 1.070140063E+03	 6.156399902E+03
 1.070703680E+03	 6.157200195E+03
 1.071267239E+03	 6.173600098E+03
 1.071830740E+03	 6.158600098E+03
 1.072394184E+03	 6.188799805E+03
 1.072957570E+03	 6.170200195E+03
 1.073520899E+03	 6.177399902E+03
 1.074084170E+03	 6.149399902E+03
 1.074647383E+03	 6.142200195E+03
 1.075210540E+03	 6.124000000E+03
 1.075773638E+03	 6.104600098E+03
 1.076336679E+03	 6.080600098E+03
 1.076899663E+03	 6.129799805E+03
 1.077462589E+03	 6.087000000E+03
 1.078025457E+03	 6.117000000E+03
 1.078588268E+03	 6.055000000E+03
 1.079151022E+03	 6.103399902E+03
 1.079713718E+03	 6.069000000E+03
 1.080276356E+03	 6.086799805E+03
 1.080838937E+03	 6.050799805E+03
 1.081401461E+03	 6.053000000E+03
 1.081963927E+03	 6.061399902E+03
 1.082526336E+03	 6.070799805E+03
 1.083088687E+03	 6.036799805E+03
 1.083650981E+03	 6.083600098E+03
 1.084213217E+03	 6.040200195E+03
 1.084775396E+03	 6.055000000E+03
 1.085337517E+03	 6.041200195E+03
 1.085899581E+03	 6.073399902E+03
 1.086461587E+03	 6.017799805E+03
 1.087023536E+03	 5.978600098E+03
 1.087585428E+03	 6.023200195E+03
 1.088147262E+03	 5.978600098E+03
 1.088709039E+03	 5.984600098E+03
 1.089270758E+03	 6.014600098E+03
 1.089832420E+03	 6.015600098E+03
 1.090394024E+03	 5.997200195E+03
 1.090955571E+03	 5.960000000E+03
 1.091517061E+03	 6.001000000E+03
 1.092078493E+03	 5.945200195E+03
 1.092639868E+03	 5.955399902E+03
 1.093201185E+03	 5.966200195E+03
 1.093762445E+03	 5.958399902E+03
 1.094323648E+03	 5.934600098E+03
 1.094884793E+03	 5.946600098E+03
 1.095445881E+03	 5.920200195E+03
 1.096006911E+03	 5.930000000E+03
 1.096567884E+03	 5.928600098E+03
 1.097128800E+03	 5.891399902E+03
 1.097689659E+03	 5.892600098E+03
 1.098250460E+03	 5.887000000E+03
 1.098811203E+03	 5.891200195E+03
 1.099371890E+03	 5.885399902E+03
 1.099932518E+03	 5.846000000E+03
 1.100493090E+03	 5.899200195E+03
 1.101053604E+03	 5.824200195E+03
 1.101614061E+03	 5.836799805E+03
 1.102174461E+03	 5.848000000E+03
 1.102734803E+03	 5.819799805E+03
 1.103295088E+03	 5.830200195E+03
 1.103855316E+03	 5.822399902E+03
 1.104415486E+03	 5.808200195E+03
 1.104975599E+03	 5.822200195E+03
 1.105535655E+03	 5.804399902E+03
 1.106095653E+03	 5.788200195E+03
 1.106655594E+03	 5.786600098E+03
 1.107215478E+03	 5.775399902E+03
 1.107775305E+03	 5.771799805E+03
 1.108335074E+03	 5.761399902E+03
 1.108894786E+03	 5.747200195E+03
 1.109454440E+03	 5.748399902E+03
 1.110014038E+03	 5.747200195E+03
 1.110573578E+03	 5.778000000E+03
 1.111133061E+03	 5.718000000E+03
 1.111692486E+03	 5.786200195E+03
 1.112251854E+03	 5.710799805E+03
 1.112811165E+03	 5.761799805E+03
 1.113370419E+03	 5.713200195E+03
 1.113929616E+03	 5.764200195E+03
 1.114488755E+03	 5.713200195E+03
 1.115047837E+03	 5.770399902E+03
 1.115606862E+03	 5.669000000E+03
 1.116165830E+03	 5.709799805E+03
 1.116724740E+03	 5.676399902E+03
 1.117283593E+03	 5.716000000E+03
 1.117842389E+03	 5.659200195E+03
 1.118401128E+03	 5.740399902E+03
 1.118959809E+03	 5.682200195E+03
 1.119518433E+03	 5.686600098E+03
 1.120077000E+03	 5.682399902E+03
 1.120635510E+03	 5.679600098E+03
 1.121193963E+03	 5.641799805E+03
 1.121752358E+03	 5.713600098E+03
 1.122310697E+03	 5.672799805E+03
 1.122868978E+03	 5.681000000E+03
 1.123427202E+03	 5.625799805E+03
 1.123985368E+03	 5.697799805E+03
 1.124543478E+03	 5.641200195E+03
 1.125101530E+03	 5.656000000E+03
 1.125659526E+03	 5.605000000E+03
 1.126217464E+03	 5.654200195E+03
 1.126775345E+03	 5.598799805E+03
 1.127333168E+03	 5.655600098E+03
 1.127890935E+03	 5.642799805E+03
 1.128448644E+03	 5.651200195E+03
 1.129006297E+03	 5.605399902E+03
 1.129563892E+03	 5.611799805E+03
 1.130121430E+03	 5.583000000E+03
 1.130678911E+03	 5.645000000E+03
 1.131236335E+03	 5.601200195E+03
 1.131793701E+03	 5.628399902E+03
 1.132351011E+03	 5.561399902E+03
 1.132908263E+03	 5.588399902E+03
 1.133465458E+03	 5.570600098E+03
 1.134022597E+03	 5.618399902E+03
 1.134579678E+03	 5.625000000E+03
 1.135136702E+03	 5.643200195E+03
 1.135693669E+03	 5.573399902E+03
 1.136250578E+03	 5.640600098E+03
 1.136807431E+03	 5.544200195E+03
 1.137364227E+03	 5.656200195E+03
 1.137920965E+03	 5.583399902E+03
 1.138477647E+03	 5.614200195E+03
 1.139034271E+03	 5.586000000E+03
 1.139590839E+03	 5.571399902E+03
 1.140147349E+03	 5.597799805E+03
 1.140703802E+03	 5.594000000E+03
 1.141260198E+03	 5.574799805E+03
 1.141816537E+03	 5.578200195E+03
 1.142372820E+03	 5.570000000E+03
 1.142929045E+03	 5.572799805E+03
 1.143485213E+03	 5.566799805E+03
 1.144041323E+03	 5.556200195E+03
 1.144597377E+03	 5.539200195E+03
 1.145153374E+03	 5.569000000E+03
 1.145709314E+03	 5.582399902E+03
 1.146265197E+03	 5.570200195E+03
 1.146821023E+03	 5.577399902E+03
 1.147376792E+03	 5.553399902E+03
 1.147932503E+03	 5.552200195E+03
 1.148488158E+03	 5.566399902E+03
 1.149043756E+03	 5.564600098E+03
 1.149599297E+03	 5.536000000E+03
 1.150154781E+03	 5.590399902E+03
 1.150710207E+03	 5.566600098E+03
 1.151265577E+03	 5.537799805E+03
 1.151820890E+03	 5.591399902E+03
 1.152376146E+03	 5.585000000E+03
 1.152931345E+03	 5.580600098E+03
 1.153486487E+03	 5.520200195E+03
 1.154041572E+03	 5.519000000E+03
 1.154596600E+03	 5.521600098E+03
 1.155151571E+03	 5.535000000E+03
 1.155706485E+03	 5.566000000E+03
 1.156261342E+03	 5.532600098E+03
 1.156816142E+03	 5.536000000E+03
 1.157370885E+03	 5.579200195E+03
 1.157925572E+03	 5.523799805E+03
 1.158480201E+03	 5.553799805E+03
 1.159034774E+03	 5.505399902E+03
 1.159589289E+03	 5.546799805E+03
 1.160143748E+03	 5.512000000E+03
 1.160698149E+03	 5.500600098E+03
 1.161252494E+03	 5.531200195E+03
 1.161806782E+03	 5.515200195E+03
 1.162361013E+03	 5.539399902E+03
 1.162915187E+03	 5.485600098E+03
 1.163469304E+03	 5.531399902E+03
 1.164023364E+03	 5.497799805E+03
 1.164577368E+03	 5.550000000E+03
 1.165131314E+03	 5.503399902E+03
 1.165685204E+03	 5.500200195E+03
 1.166239036E+03	 5.489399902E+03
 1.166792812E+03	 5.520000000E+03
 1.167346531E+03	 5.500799805E+03
 1.167900193E+03	 5.530600098E+03
 1.168453798E+03	 5.444200195E+03
 1.169007347E+03	 5.481399902E+03
 1.169560838E+03	 5.457600098E+03
 1.170114273E+03	 5.490399902E+03
 1.170667650E+03	 5.451200195E+03
 1.171220971E+03	 5.549200195E+03
 1.171774235E+03	 5.465000000E+03
 1.172327443E+03	 5.463600098E+03
 1.172880593E+03	 5.449000000E+03
 1.173433687E+03	 5.491399902E+03
 1.173986723E+03	 5.435600098E+03
 1.174539703E+03	 5.490200195E+03
 1.175092626E+03	 5.439200195E+03
 1.175645493E+03	 5.448000000E+03
 1.176198302E+03	 5.409399902E+03
 1.176751055E+03	 5.448799805E+03
 1.177303751E+03	 5.485000000E+03
 1.177856390E+03	 5.489000000E+03
 1.178408972E+03	 5.459600098E+03
 1.178961498E+03	 5.470399902E+03
 1.179513966E+03	 5.450000000E+03
 1.180066378E+03	 5.429600098E+03
 1.180618733E+03	 5.432000000E+03
 1.181171032E+03	 5.453399902E+03
 1.181723273E+03	 5.421000000E+03
 1.182275458E+03	 5.414799805E+03
 1.182827586E+03	 5.407399902E+03
 1.183379657E+03	 5.448399902E+03
 1.183931672E+03	 5.396399902E+03
 1.184483630E+03	 5.431600098E+03
 1.185035531E+03	 5.406000000E+03
 1.185587375E+03	 5.417600098E+03
 1.186139162E+03	 5.401399902E+03
 1.186690893E+03	 5.367000000E+03
 1.187242567E+03	 5.396200195E+03
 1.187794184E+03	 5.379600098E+03
 1.188345745E+03	 5.373799805E+03
 1.188897249E+03	 5.342200195E+03
 1.189448696E+03	 5.401799805E+03
 1.190000086E+03	 5.377600098E+03
 1.190551420E+03	 5.369200195E+03
 1.191102697E+03	 5.398799805E+03
 1.191653918E+03	 5.366399902E+03
 1.192205081E+03	 5.377600098E+03
 1.192756188E+03	 5.366000000E+03
 1.193307238E+03	 5.389200195E+03
 1.193858232E+03	 5.353399902E+03
 1.194409169E+03	 5.376200195E+03
 1.194960049E+03	 5.340799805E+03
 1.195510872E+03	 5.316399902E+03
 1.196061639E+03	 5.348600098E+03
 1.196612349E+03	 5.367799805E+03
 1.197163003E+03	 5.299600098E+03
 1.197713599E+03	 5.321200195E+03
 1.198264139E+03	 5.323000000E+03
 1.198814623E+03	 5.315000000E+03
 1.199365050E+03	 5.344200195E+03
 1.199915420E+03	 5.324600098E+03
 1.200465734E+03	 5.306600098E+03
 1.201015990E+03	 5.291000000E+03
 1.201566191E+03	 5.331799805E+03
 1.202116334E+03	 5.266200195E+03
 1.202666421E+03	 5.298799805E+03
 1.203216452E+03	 5.318600098E+03
 1.203766425E+03	 5.300399902E+03
 1.204316343E+03	 5.321399902E+03
 1.204866203E+03	 5.308399902E+03
 1.205416007E+03	 5.305200195E+03
 1.205965754E+03	 5.283799805E+03
 1.206515445E+03	 5.260799805E+03
 1.207065079E+03	 5.259200195E+03
 1.207614657E+03	 5.253600098E+03
 1.208164177E+03	 5.217000000E+03
 1.208713642E+03	 5.238600098E+03
 1.209263050E+03	 5.261200195E+03
 1.209812401E+03	 5.260600098E+03
 1.210361695E+03	 5.227000000E+03
 1.210910933E+03	 5.254799805E+03
 1.211460115E+03	 5.208200195E+03
 1.212009240E+03	 5.201399902E+03
 1.212558308E+03	 5.239000000E+03
 1.213107320E+03	 5.218399902E+03
 1.213656275E+03	 5.229399902E+03
 1.214205174E+03	 5.218600098E+03
 1.214754016E+03	 5.184600098E+03
 1.215302801E+03	 5.190200195E+03
 1.215851530E+03	 5.178600098E+03
 1.216400203E+03	 5.190399902E+03
 1.216948819E+03	 5.214200195E+03
 1.217497378E+03	 5.213200195E+03
 1.218045881E+03	 5.181399902E+03
 1.218594327E+03	 5.175000000E+03
 1.219142717E+03	 5.180200195E+03
 1.219691051E+03	 5.190799805E+03
 1.220239327E+03	 5.173399902E+03
 1.220787548E+03	 5.203399902E+03
 1.221335712E+03	 5.180000000E+03
 1.221883819E+03	 5.155200195E+03
 1.222431870E+03	 5.214600098E+03
 1.222979864E+03	 5.184200195E+03
 1.223527802E+03	 5.158799805E+03
 1.224075683E+03	 5.158000000E+03
 1.224623508E+03	 5.127200195E+03
 1.225171277E+03	 5.153200195E+03
 1.225718989E+03	 5.153799805E+03
 1.226266644E+03	 5.115799805E+03
 1.226814243E+03	 5.181000000E+03
 1.227361786E+03	 5.149600098E+03
 1.227909272E+03	 5.166799805E+03
 1.228456702E+03	 5.151799805E+03
 1.229004075E+03	 5.125200195E+03
 1.229551392E+03	 5.129200195E+03
 1.230098652E+03	 5.125399902E+03
 1.230645856E+03	 5.103600098E+03
 1.231193003E+03	 5.118799805E+03
 1.231740094E+03	 5.108200195E+03
 1.232287129E+03	 5.101600098E+03
 1.232834107E+03	 5.138600098E+03
 1.233381029E+03	 5.120399902E+03
 1.233927894E+03	 5.134600098E+03
 1.234474703E+03	 5.072200195E+03
 1.235021455E+03	 5.078799805E+03
 1.235568151E+03	 5.097600098E+03
 1.236114791E+03	 5.114399902E+03
 1.236661374E+03	 5.139000000E+03
 1.237207901E+03	 5.104200195E+03
 1.237754372E+03	 5.110600098E+03
 1.238300786E+03	 5.094799805E+03
 1.238847144E+03	 5.051200195E+03
 1.239393445E+03	 5.102600098E+03
 1.239939690E+03	 5.045600098E+03
 1.240485879E+03	 5.065200195E+03
 1.241032011E+03	 5.052399902E+03
 1.241578087E+03	 5.064799805E+03
 1.242124106E+03	 5.062799805E+03
 1.242670070E+03	 5.076600098E+03
 1.243215976E+03	 5.050600098E+03
 1.243761827E+03	 5.009399902E+03
 1.244307621E+03	 5.053799805E+03
 1.244853359E+03	 5.052200195E+03
 1.245399040E+03	 5.085799805E+03
 1.245944665E+03	 5.062799805E+03
 1.246490234E+03	 5.041399902E+03
 1.247035746E+03	 5.021600098E+03
 1.247581203E+03	 5.045200195E+03
 1.248126602E+03	 5.044799805E+03
 1.248671946E+03	 5.026600098E+03
 1.249217233E+03	 5.027000000E+03
 1.249762464E+03	 5.078799805E+03
 1.250307638E+03	 5.008399902E+03
 1.250852757E+03	 5.025399902E+03
 1.251397819E+03	 5.020000000E+03
 1.251942824E+03	 4.993399902E+03
 1.252487774E+03	 5.003399902E+03
 1.253032667E+03	 5.061799805E+03
 1.253577503E+03	 5.021799805E+03
 1.254122284E+03	 5.028000000E+03
 1.254667008E+03	 5.022799805E+03
 1.255211676E+03	 4.999399902E+03
 1.255756288E+03	 5.004399902E+03
 1.256300843E+03	 5.009600098E+03
 1.256845342E+03	 4.998799805E+03
 1.257389785E+03	 5.030600098E+03
 1.257934172E+03	 4.995399902E+03
 1.258478502E+03	 5.023600098E+03
 1.259022776E+03	 4.963200195E+03
 1.259566994E+03	 4.987000000E+03
 1.260111156E+03	 4.972399902E+03
 1.260655261E+03	 4.994399902E+03
 1.261199311E+03	 4.987200195E+03
 1.261743304E+03	 4.967000000E+03
 1.262287240E+03	 4.973000000E+03
 1.262831121E+03	 4.940799805E+03
 1.263374945E+03	 4.967799805E+03
 1.263918713E+03	 4.978200195E+03
 1.264462425E+03	 4.964000000E+03
 1.265006081E+03	 4.985600098E+03
 1.265549680E+03	 4.954600098E+03
 1.266093223E+03	 4.967200195E+03
 1.266636711E+03	 5.008600098E+03
 1.267180141E+03	 4.933000000E+03
 1.267723516E+03	 4.962799805E+03
 1.268266835E+03	 4.944799805E+03
 1.268810097E+03	 4.987600098E+03
 1.269353303E+03	 4.927799805E+03
 1.269896453E+03	 4.945000000E+03
 1.270439547E+03	 4.935399902E+03
 1.270982584E+03	 4.921000000E+03
 1.271525566E+03	 4.922000000E+03
 1.272068491E+03	 4.915799805E+03
 1.272611360E+03	 4.944600098E+03
 1.273154173E+03	 4.937600098E+03
 1.273696930E+03	 4.926399902E+03
 1.274239631E+03	 4.943600098E+03
 1.274782275E+03	 4.938799805E+03
 1.275324864E+03	 4.919000000E+03
 1.275867396E+03	 4.914799805E+03
 1.276409872E+03	 4.935200195E+03
 1.276952292E+03	 4.932200195E+03
 1.277494656E+03	 4.911600098E+03
 1.278036964E+03	 4.900799805E+03
 1.278579215E+03	 4.905799805E+03
 1.279121411E+03	 4.885399902E+03
 1.279663550E+03	 4.895000000E+03
 1.280205634E+03	 4.867799805E+03
 1.280747661E+03	 4.908799805E+03
 1.281289632E+03	 4.896799805E+03
 1.281831547E+03	 4.913799805E+03
 1.282373406E+03	 4.865200195E+03
 1.282915209E+03	 4.887799805E+03
 1.283456955E+03	 4.883799805E+03
 1.283998646E+03	 4.919600098E+03
 1.284540281E+03	 4.949200195E+03
 1.285081859E+03	 4.915000000E+03
 1.285623381E+03	 4.897200195E+03
 1.286164848E+03	 4.859799805E+03
 1.286706258E+03	 4.848000000E+03
 1.287247612E+03	 4.839799805E+03
 1.287788911E+03	 4.878399902E+03
 1.288330153E+03	 4.857000000E+03
 1.288871339E+03	 4.852399902E+03
 1.289412469E+03	 4.829000000E+03
 1.289953543E+03	 4.867200195E+03
 1.290494561E+03	 4.820399902E+03
 1.291035523E+03	 4.829000000E+03
 1.291576428E+03	 4.847799805E+03
 1.292117278E+03	 4.843399902E+03
 1.292658072E+03	 4.799200195E+03
 1.293198810E+03	 4.835399902E+03
 1.293739492E+03	 4.790600098E+03
 1.294280118E+03	 4.822000000E+03
 1.294820687E+03	 4.810200195E+03
 1.295361201E+03	 4.784399902E+03
 1.295901659E+03	 4.802600098E+03
 1.296442061E+03	 4.782200195E+03
 1.296982406E+03	 4.802799805E+03
 1.297522696E+03	 4.789799805E+03
 1.298062930E+03	 4.844399902E+03
 1.298603108E+03	 4.768600098E+03
 1.299143229E+03	 4.823000000E+03
 1.299683295E+03	 4.789799805E+03
 1.300223305E+03	 4.746000000E+03
 1.300763259E+03	 4.750600098E+03
 1.301303157E+03	 4.776000000E+03
 1.301842999E+03	 4.781000000E+03
 1.302382785E+03	 4.779600098E+03
 1.302922515E+03	 4.719399902E+03
 1.303462189E+03	 4.789799805E+03
 1.304001807E+03	 4.751399902E+03
 1.304541369E+03	 4.778200195E+03
 1.305080875E+03	 4.755399902E+03
 1.305620326E+03	 4.749000000E+03
 1.306159720E+03	 4.760000000E+03
 1.306699058E+03	 4.739799805E+03
 1.307238341E+03	 4.774600098E+03
 1.307777567E+03	 4.751200195E+03
 1.308316738E+03	 4.713200195E+03
 1.308855853E+03	 4.720600098E+03
 1.309394912E+03	 4.744399902E+03
 1.309933915E+03	 4.706200195E+03
 1.310472862E+03	 4.752399902E+03
 1.311011753E+03	 4.717000000E+03
 1.311550588E+03	 4.724200195E+03
 1.312089367E+03	 4.720399902E+03
 1.312628090E+03	 4.715600098E+03
 1.313166758E+03	 4.664799805E+03
 1.313705370E+03	 4.766799805E+03
 1.314243925E+03	 4.694000000E+03
 1.314782425E+03	 4.706600098E+03
 1.315320869E+03	 4.681799805E+03
 1.315859257E+03	 4.765200195E+03
 1.316397589E+03	 4.671399902E+03
 1.316935866E+03	 4.724600098E+03
 1.317474086E+03	 4.685000000E+03
 1.318012251E+03	 4.735600098E+03
 1.318550360E+03	 4.667600098E+03
 1.319088413E+03	 4.670799805E+03
 1.319626410E+03	 4.699200195E+03
 1.320164351E+03	 4.669200195E+03
 1.320702236E+03	 4.702600098E+03
 1.321240066E+03	 4.628600098E+03
 1.321777839E+03	 4.689000000E+03
 1.322315557E+03	 4.665399902E+03
 1.322853219E+03	 4.674000000E+03
 1.323390826E+03	 4.685399902E+03
 1.323928376E+03	 4.681399902E+03
 1.324465871E+03	 4.663000000E+03
 1.325003309E+03	 4.652799805E+03
 1.325540692E+03	 4.652799805E+03
 1.326078020E+03	 4.641799805E+03
 1.326615291E+03	 4.640200195E+03
 1.327152506E+03	 4.676600098E+03
 1.327689666E+03	 4.642000000E+03
 1.328226770E+03	 4.643799805E+03
 1.328763818E+03	 4.643399902E+03
 1.329300811E+03	 4.649600098E+03
 1.329837747E+03	 4.651799805E+03
 1.330374628E+03	 4.632799805E+03
 1.330911453E+03	 4.641399902E+03
 1.331448222E+03	 4.602799805E+03
 1.331984936E+03	 4.640200195E+03
 1.332521594E+03	 4.591399902E+03
 1.333058196E+03	 4.633399902E+03
 1.333594742E+03	 4.632000000E+03
 1.334131232E+03	 4.637000000E+03
 1.334667667E+03	 4.605000000E+03
 1.335204046E+03	 4.618600098E+03
 1.335740369E+03	 4.621799805E+03
 1.336276637E+03	 4.583799805E+03
 1.336812848E+03	 4.640600098E+03
 1.337349004E+03	 4.605000000E+03
 1.337885105E+03	 4.612000000E+03
 1.338421149E+03	 4.576799805E+03
 1.338957138E+03	 4.568000000E+03
 1.339493071E+03	 4.599200195E+03
 1.340028949E+03	 4.590600098E+03
 1.340564770E+03	 4.595600098E+03
 1.341100536E+03	 4.604200195E+03
 1.341636246E+03	 4.567200195E+03
 1.342171901E+03	 4.575600098E+03
 1.342707500E+03	 4.584600098E+03
 1.343243043E+03	 4.613399902E+03
 1.343778530E+03	 4.572200195E+03
 1.344313962E+03	 4.599200195E+03
 1.344849338E+03	 4.562799805E+03
 1.345384659E+03	 4.560399902E+03
 1.345919923E+03	 4.545399902E+03
 1.346455133E+03	 4.573799805E+03
 1.346990286E+03	 4.563600098E+03
 1.347525384E+03	 4.558600098E+03
 1.348060426E+03	 4.552399902E+03
 1.348595412E+03	 4.580799805E+03
 1.349130343E+03	 4.532399902E+03
 1.349665218E+03	 4.535200195E+03
 1.350200037E+03	 4.551600098E+03
 1.350734801E+03	 4.548200195E+03
 1.351269509E+03	 4.550200195E+03
 1.351804162E+03	 4.561600098E+03
 1.352338758E+03	 4.530799805E+03
 1.352873300E+03	 4.517200195E+03
 1.353407785E+03	 4.567799805E+03
 1.353942215E+03	 4.490000000E+03
 1.354476589E+03	 4.500399902E+03
 1.355010908E+03	 4.533000000E+03
 1.355545171E+03	 4.503600098E+03
 1.356079379E+03	 4.496200195E+03
 1.356613530E+03	 4.552399902E+03
 1.357147627E+03	 4.476799805E+03
 1.357681667E+03	 4.510200195E+03
 1.358215652E+03	 4.473000000E+03
 1.358749582E+03	 4.514799805E+03
 1.359283456E+03	 4.512600098E+03
 1.359817274E+03	 4.509799805E+03
 1.360351037E+03	 4.492200195E+03
 1.360884744E+03	 4.510200195E+03
 1.361418395E+03	 4.485399902E+03
 1.361951991E+03	 4.510799805E+03
 1.362485531E+03	 4.482000000E+03
 1.363019016E+03	 4.500399902E+03
 1.363552445E+03	 4.525799805E+03
 1.364085819E+03	 4.465399902E+03
 1.364619137E+03	 4.509200195E+03
 1.365152400E+03	 4.450200195E+03
 1.365685607E+03	 4.488200195E+03
 1.366218758E+03	 4.458000000E+03
 1.366751854E+03	 4.512600098E+03
 1.367284894E+03	 4.449799805E+03
 1.367817879E+03	 4.507600098E+03
 1.368350808E+03	 4.480200195E+03
 1.368883682E+03	 4.475200195E+03
 1.369416500E+03	 4.453200195E+03
 1.369949263E+03	 4.494799805E+03
 1.370481970E+03	 4.443399902E+03
 1.371014622E+03	 4.472000000E+03
 1.371547218E+03	 4.480200195E+03
 1.372079758E+03	 4.458799805E+03
 1.372612244E+03	 4.458000000E+03
 1.373144673E+03	 4.449399902E+03
 1.373677047E+03	 4.458000000E+03
 1.374209366E+03	 4.411600098E+03
 1.374741629E+03	 4.450000000E+03
 1.375273836E+03	 4.406000000E+03
 1.375805989E+03	 4.444000000E+03
 1.376338085E+03	 4.428399902E+03
 1.376870126E+03	 4.450000000E+03
 1.377402112E+03	 4.404200195E+03
 1.377934042E+03	 4.430600098E+03
 1.378465917E+03	 4.415000000E+03
 1.378997736E+03	 4.417399902E+03
 1.379529500E+03	 4.413399902E+03
 1.380061208E+03	 4.418000000E+03
 1.380592861E+03	 4.416799805E+03
 1.381124459E+03	 4.421399902E+03
 1.381656000E+03	 4.414399902E+03
 1.382187487E+03	 4.393600098E+03
 1.382718918E+03	 4.410799805E+03
 1.383250294E+03	 4.403600098E+03
 1.383781614E+03	 4.407000000E+03
 1.384312879E+03	 4.388000000E+03
 1.384844088E+03	 4.445600098E+03
 1.385375242E+03	 4.396799805E+03
 1.385906340E+03	 4.387000000E+03
 1.386437383E+03	 4.387000000E+03
 1.386968371E+03	 4.448600098E+03
 1.387499303E+03	 4.490000000E+03
 1.388030180E+03	 4.583200195E+03
 1.388561001E+03	 4.519000000E+03
 1.389091767E+03	 4.427399902E+03
 1.389622478E+03	 4.382399902E+03
 1.390153133E+03	 4.386799805E+03
 1.390683733E+03	 4.399799805E+03
 1.391214277E+03	 4.385000000E+03
 1.391744766E+03	 4.400399902E+03
 1.392275200E+03	 4.331399902E+03
 1.392805578E+03	 4.365200195E+03
 1.393335901E+03	 4.348600098E+03
 1.393866168E+03	 4.384600098E+03
 1.394396381E+03	 4.339000000E+03
 1.394926537E+03	 4.382600098E+03
 1.395456639E+03	 4.356600098E+03
 1.395986685E+03	 4.361799805E+03
 1.396516675E+03	 4.370600098E+03
 1.397046611E+03	 4.343600098E+03
 1.397576491E+03	 4.381200195E+03
 1.398106315E+03	 4.353600098E+03
 1.398636084E+03	 4.358000000E+03
 1.399165798E+03	 4.351799805E+03
 1.399695457E+03	 4.338200195E+03
 1.400225060E+03	 4.335799805E+03
 1.400754608E+03	 4.394799805E+03
 1.401284101E+03	 4.327000000E+03
 1.401813538E+03	 4.364799805E+03
 1.402342920E+03	 4.330000000E+03
 1.402872247E+03	 4.379600098E+03
 1.403401518E+03	 4.338000000E+03
 1.403930734E+03	 4.362200195E+03
 1.404459895E+03	 4.367399902E+03
 1.404989000E+03	 4.367200195E+03
 1.405518050E+03	 4.314200195E+03
 1.406047045E+03	 4.303200195E+03
 1.406575984E+03	 4.362600098E+03
 1.407104869E+03	 4.351600098E+03
 1.407633697E+03	 4.316000000E+03
 1.408162471E+03	 4.318799805E+03
 1.408691189E+03	 4.364200195E+03
 1.409219852E+03	 4.302600098E+03
 1.409748460E+03	 4.325000000E+03
 1.410277013E+03	 4.309399902E+03
 1.410805510E+03	 4.320799805E+03
 1.411333952E+03	 4.309000000E+03
 1.411862339E+03	 4.332799805E+03
 1.412390670E+03	 4.333000000E+03
 1.412918946E+03	 4.296200195E+03
 1.413447167E+03	 4.341200195E+03
 1.413975333E+03	 4.282200195E+03
 1.414503444E+03	 4.299799805E+03
 1.415031499E+03	 4.344399902E+03
 1.415559499E+03	 4.315200195E+03
 1.416087444E+03	 4.299000000E+03
 1.416615333E+03	 4.274399902E+03
 1.417143167E+03	 4.310399902E+03
 1.417670947E+03	 4.299000000E+03
 1.418198670E+03	 4.308399902E+03
 1.418726339E+03	 4.321600098E+03
 1.419253952E+03	 4.286600098E+03
 1.419781511E+03	 4.289000000E+03
 1.420309014E+03	 4.306600098E+03
 1.420836461E+03	 4.273600098E+03
 1.421363854E+03	 4.300799805E+03
 1.421891191E+03	 4.309200195E+03
 1.422418474E+03	 4.281600098E+03
 1.422945701E+03	 4.267200195E+03
 1.423472872E+03	 4.289399902E+03
 1.423999989E+03	 4.278799805E+03
 1.424527050E+03	 4.293200195E+03
 1.425054057E+03	 4.283200195E+03
 1.425581008E+03	 4.293000000E+03
 1.426107904E+03	 4.311799805E+03
 1.426634745E+03	 4.295000000E+03
 1.427161530E+03	 4.268399902E+03
 1.427688261E+03	 4.325200195E+03
 1.428214936E+03	 4.275600098E+03
 1.428741556E+03	 4.258600098E+03
 1.429268121E+03	 4.295000000E+03
 1.429794631E+03	 4.283600098E+03
 1.430321085E+03	 4.256200195E+03
 1.430847485E+03	 4.276200195E+03
 1.431373829E+03	 4.259799805E+03
 1.431900118E+03	 4.260799805E+03
 1.432426353E+03	 4.261399902E+03
 1.432952532E+03	 4.217200195E+03
 1.433478655E+03	 4.231600098E+03
 1.434004724E+03	 4.222399902E+03
 1.434530738E+03	 4.271600098E+03
 1.435056696E+03	 4.259000000E+03
 1.435582600E+03	 4.236200195E+03
 1.436108448E+03	 4.223399902E+03
 1.436634241E+03	 4.244399902E+03
 1.437159979E+03	 4.230399902E+03
 1.437685662E+03	 4.226799805E+03
 1.438211290E+03	 4.219799805E+03
 1.438736863E+03	 4.250600098E+03
 1.439262381E+03	 4.241000000E+03
 1.439787843E+03	 4.229799805E+03
 1.440313251E+03	 4.227000000E+03
 1.440838603E+03	 4.232799805E+03
 1.441363900E+03	 4.231600098E+03
 1.441889143E+03	 4.240600098E+03
 1.442414330E+03	 4.227600098E+03
 1.442939462E+03	 4.225600098E+03
 1.443464539E+03	 4.203799805E+03
 1.443989561E+03	 4.188600098E+03
 1.444514528E+03	 4.182399902E+03
 1.445039440E+03	 4.206200195E+03
 1.445564297E+03	 4.193200195E+03
 1.446089099E+03	 4.201799805E+03
 1.446613846E+03	 4.193000000E+03
 1.447138537E+03	 4.224000000E+03
 1.447663174E+03	 4.193200195E+03
 1.448187756E+03	 4.184399902E+03
 1.448712282E+03	 4.176799805E+03
 1.449236754E+03	 4.179799805E+03
 1.449761171E+03	 4.177000000E+03
 1.450285532E+03	 4.183399902E+03
 1.450809839E+03	 4.160000000E+03
 1.451334090E+03	 4.190799805E+03
 1.451858287E+03	 4.180600098E+03
 1.452382428E+03	 4.182799805E+03
 1.452906515E+03	 4.181600098E+03
 1.453430546E+03	 4.186399902E+03
 1.453954523E+03	 4.178000000E+03
 1.454478444E+03	 4.185000000E+03
 1.455002311E+03	 4.166000000E+03
 1.455526123E+03	 4.170200195E+03
 1.456049879E+03	 4.153000000E+03
 1.456573581E+03	 4.187799805E+03
 1.457097227E+03	 4.152000000E+03
 1.457620819E+03	 4.151399902E+03
 1.458144356E+03	 4.183799805E+03
 1.458667837E+03	 4.196600098E+03
 1.459191264E+03	 4.187600098E+03
 1.459714636E+03	 4.121799805E+03
 1.460237952E+03	 4.164399902E+03
 1.460761214E+03	 4.124600098E+03
 1.461284421E+03	 4.125200195E+03
 1.461807573E+03	 4.145600098E+03
 1.462330670E+03	 4.152000000E+03
 1.462853712E+03	 4.153000000E+03
 1.463376699E+03	 4.128000000E+03
 1.463899632E+03	 4.119399902E+03
 1.464422509E+03	 4.145799805E+03
 1.464945331E+03	 4.136200195E+03
 1.465468099E+03	 4.150600098E+03
 1.465990811E+03	 4.123799805E+03
 1.466513469E+03	 4.090800049E+03
 1.467036071E+03	 4.127799805E+03
 1.467558619E+03	 4.091600098E+03
 1.468081112E+03	 4.138799805E+03
 1.468603550E+03	 4.086199951E+03
 1.469125933E+03	 4.129200195E+03
 1.469648261E+03	 4.113600098E+03
 1.470170534E+03	 4.116600098E+03
 1.470692752E+03	 4.097000000E+03
 1.471214916E+03	 4.092399902E+03
 1.471737024E+03	 4.078800049E+03
 1.472259078E+03	 4.111799805E+03
 1.472781077E+03	 4.070600098E+03
 1.473303021E+03	 4.100000000E+03
 1.473824910E+03	 4.108799805E+03
 1.474346744E+03	 4.081199951E+03
 1.474868523E+03	 4.075199951E+03
 1.475390248E+03	 4.071600098E+03
 1.475911917E+03	 4.084600098E+03
 1.476433532E+03	 4.081399902E+03
 1.476955092E+03	 4.119799805E+03
 1.477476597E+03	 4.083399902E+03
 1.477998047E+03	 4.073000000E+03
 1.478519442E+03	 4.084199951E+03
 1.479040783E+03	 4.081800049E+03
 1.479562068E+03	 4.080399902E+03
 1.480083299E+03	 4.062399902E+03
 1.480604475E+03	 4.077000000E+03
 1.481125596E+03	 4.078000000E+03
 1.481646663E+03	 4.044000000E+03
 1.482167674E+03	 4.079199951E+03
 1.482688631E+03	 4.037199951E+03
 1.483209533E+03	 4.042600098E+03
 1.483730380E+03	 4.024800049E+03
 1.484251172E+03	 4.028800049E+03
 1.484771909E+03	 4.048600098E+03
 1.485292592E+03	 4.070399902E+03
 1.485813220E+03	 4.053000000E+03
 1.486333793E+03	 4.053000000E+03
 1.486854311E+03	 4.042800049E+03
 1.487374775E+03	 4.035199951E+03
 1.487895183E+03	 4.013399902E+03
 1.488415537E+03	 4.043199951E+03
 1.488935836E+03	 4.034600098E+03
 1.489456081E+03	 4.051600098E+03
 1.489976270E+03	 4.010600098E+03
 1.490496405E+03	 4.061399902E+03
 1.491016485E+03	 4.029600098E+03
 1.491536511E+03	 4.009800049E+03
 1.492056481E+03	 4.015399902E+03
 1.492576397E+03	 3.987600098E+03
 1.493096258E+03	 3.995199951E+03
 1.493616064E+03	 4.004800049E+03
 1.494135816E+03	 3.999600098E+03
 1.494655513E+03	 4.005399902E+03
 1.495175155E+03	 3.969800049E+03
 1.495694742E+03	 4.032000000E+03
 1.496214274E+03	 3.969399902E+03
 1.496733752E+03	 4.013199951E+03
 1.497253175E+03	 4.006399902E+03
 1.497772544E+03	 3.992800049E+03
 1.498291858E+03	 4.024000000E+03
 1.498811116E+03	 3.992199951E+03
 1.499330321E+03	 3.998800049E+03
 1.499849470E+03	 4.024600098E+03
 1.500368565E+03	 3.978399902E+03
 1.500887605E+03	 3.986000000E+03
 1.501406591E+03	 4.001600098E+03
 1.501925521E+03	 3.986600098E+03
 1.502444397E+03	 4.002199951E+03
 1.502963219E+03	 4.008000000E+03
 1.503481985E+03	 3.984000000E+03
 1.504000697E+03	 3.954600098E+03
 1.504519355E+03	 3.961600098E+03
 1.505037957E+03	 3.970800049E+03
 1.505556505E+03	 3.966000000E+03
 1.506074999E+03	 3.972399902E+03
 1.506593437E+03	 3.973800049E+03
 1.507111821E+03	 3.993199951E+03
 1.507630150E+03	 3.953000000E+03
 1.508148425E+03	 3.942800049E+03
 1.508666645E+03	 3.953399902E+03
 1.509184810E+03	 3.980000000E+03
 1.509702921E+03	 3.949800049E+03
 1.510220977E+03	 3.946600098E+03
 1.510738979E+03	 3.962000000E+03
 1.511256925E+03	 3.967600098E+03
 1.511774817E+03	 3.944800049E+03
 1.512292655E+03	 3.939399902E+03
 1.512810438E+03	 3.944199951E+03
 1.513328166E+03	 3.927199951E+03
 1.513845840E+03	 3.943000000E+03
 1.514363459E+03	 3.919800049E+03
 1.514881023E+03	 3.949199951E+03
 1.515398533E+03	 3.945199951E+03
 1.515915988E+03	 3.964000000E+03
 1.516433389E+03	 3.948399902E+03
 1.516950734E+03	 3.933399902E+03
 1.517468026E+03	 3.935199951E+03
 1.517985263E+03	 3.925000000E+03
 1.518502445E+03	 3.937199951E+03
 1.519019572E+03	 3.954800049E+03
 1.519536645E+03	 3.963399902E+03
 1.520053664E+03	 3.919600098E+03
 1.520570628E+03	 3.947199951E+03
 1.521087537E+03	 3.919600098E+03
 1.521604392E+03	 3.950399902E+03
 1.522121192E+03	 3.927399902E+03
 1.522637937E+03	 3.959199951E+03
 1.523154628E+03	 3.949199951E+03
 1.523671265E+03	 3.926800049E+03
 1.524187847E+03	 3.930199951E+03
 1.524704374E+03	 3.905600098E+03
 1.525220847E+03	 3.923000000E+03
 1.525737265E+03	 3.886199951E+03
 1.526253629E+03	 3.924199951E+03
 1.526769938E+03	 3.914399902E+03
 1.527286192E+03	 3.927800049E+03
 1.527802392E+03	 3.916600098E+03
 1.528318538E+03	 3.962399902E+03
 1.528834629E+03	 3.897800049E+03
 1.529350666E+03	 3.909399902E+03
 1.529866648E+03	 3.895800049E+03
 1.530382575E+03	 3.901600098E+03
 1.530898448E+03	 3.908800049E+03
 1.531414266E+03	 3.912600098E+03
 1.531930030E+03	 3.911399902E+03
 1.532445740E+03	 3.896600098E+03
 1.532961395E+03	 3.891399902E+03
 1.533476995E+03	 3.876800049E+03
 1.533992541E+03	 3.898199951E+03
 1.534508033E+03	 3.891199951E+03
 1.535023470E+03	 3.896000000E+03
 1.535538852E+03	 3.907600098E+03
 1.536054180E+03	 3.869000000E+03
 1.536569454E+03	 3.904800049E+03
 1.537084673E+03	 3.906800049E+03
 1.537599837E+03	 3.883600098E+03
 1.538114947E+03	 3.886800049E+03
 1.538630003E+03	 3.891600098E+03
 1.539145004E+03	 3.869800049E+03
 1.539659951E+03	 3.916399902E+03
 1.540174843E+03	 3.874600098E+03
 1.540689681E+03	 3.855199951E+03
 1.541204465E+03	 3.896600098E+03
 1.541719194E+03	 3.864199951E+03
 1.542233868E+03	 3.874399902E+03
 1.542748488E+03	 3.861600098E+03
 1.543263054E+03	 3.897399902E+03
 1.543777565E+03	 3.897800049E+03
 1.544292022E+03	 3.910199951E+03
 1.544806424E+03	 3.877199951E+03
 1.545320772E+03	 3.903800049E+03
 1.545835066E+03	 3.876199951E+03
 1.546349305E+03	 3.871600098E+03
 1.546863489E+03	 3.868399902E+03
 1.547377620E+03	 3.882800049E+03
 1.547891696E+03	 3.862000000E+03
 1.548405717E+03	 3.876399902E+03
 1.548919684E+03	 3.888000000E+03
 1.549433597E+03	 3.871600098E+03
 1.549947455E+03	 3.902800049E+03
 1.550461259E+03	 3.855199951E+03
 1.550975009E+03	 3.884000000E+03
 1.551488704E+03	 3.903800049E+03
 1.552002345E+03	 3.895000000E+03
 1.552515931E+03	 3.879000000E+03
 1.553029463E+03	 3.865399902E+03
 1.553542941E+03	 3.826399902E+03
 1.554056364E+03	 3.860600098E+03
 1.554569733E+03	 3.844800049E+03
 1.555083048E+03	 3.845000000E+03
 1.555596308E+03	 3.862600098E+03
 1.556109514E+03	 3.833199951E+03
 1.556622665E+03	 3.863800049E+03
 1.557135762E+03	 3.836199951E+03
 1.557648805E+03	 3.862199951E+03
 1.558161794E+03	 3.847199951E+03
 1.558674728E+03	 3.856399902E+03
 1.559187608E+03	 3.848399902E+03
 1.559700433E+03	 3.813199951E+03
 1.560213205E+03	 3.858199951E+03
 1.560725921E+03	 3.834399902E+03
 1.561238584E+03	 3.828800049E+03
 1.561751192E+03	 3.843399902E+03
 1.562263746E+03	 3.844199951E+03
 1.562776246E+03	 3.867600098E+03
 1.563288691E+03	 3.858399902E+03
 1.563801082E+03	 3.833399902E+03
 1.564313419E+03	 3.848600098E+03
 1.564825701E+03	 3.848800049E+03
 1.565337929E+03	 3.840199951E+03
 1.565850103E+03	 3.868600098E+03
 1.566362223E+03	 3.820000000E+03
 1.566874288E+03	 3.818199951E+03
 1.567386299E+03	 3.854000000E+03
 1.567898256E+03	 3.831800049E+03
 1.568410158E+03	 3.781199951E+03
 1.568922007E+03	 3.826800049E+03
 1.569433800E+03	 3.812800049E+03
 1.569945540E+03	 3.794800049E+03
 1.570457226E+03	 3.831600098E+03
 1.570968857E+03	 3.828399902E+03
 1.571480434E+03	 3.798600098E+03
 1.571991956E+03	 3.808399902E+03
 1.572503425E+03	 3.837800049E+03
 1.573014839E+03	 3.832199951E+03
 1.573526199E+03	 3.811800049E+03
 1.574037505E+03	 3.833800049E+03
 1.574548756E+03	 3.820000000E+03
 1.575059953E+03	 3.833800049E+03
 1.575571096E+03	 3.816800049E+03
 1.576082185E+03	 3.823600098E+03
 1.576593220E+03	 3.820000000E+03
 1.577104200E+03	 3.810000000E+03
 1.577615126E+03	 3.784600098E+03
 1.578125998E+03	 3.798399902E+03
 1.578636816E+03	 3.793800049E+03
 1.579147580E+03	 3.808800049E+03
 1.579658289E+03	 3.785399902E+03
 1.580168944E+03	 3.769399902E+03
 1.580679545E+03	 3.815600098E+03
 1.581190092E+03	 3.783000000E+03
 1.581700585E+03	 3.764000000E+03
 1.582211023E+03	 3.783800049E+03
 1.582721407E+03	 3.784000000E+03
 1.583231737E+03	 3.786000000E+03
 1.583742013E+03	 3.804600098E+03
 1.584252235E+03	 3.784399902E+03
 1.584762403E+03	 3.774199951E+03
 1.585272516E+03	 3.784800049E+03
 1.585782575E+03	 3.765000000E+03
 1.586292581E+03	 3.803199951E+03
 1.586802532E+03	 3.758000000E+03
 1.587312428E+03	 3.753600098E+03
 1.587822271E+03	 3.746000000E+03
 1.588332060E+03	 3.801800049E+03
 1.588841794E+03	 3.778000000E+03
 1.589351474E+03	 3.756600098E+03
 1.589861100E+03	 3.737199951E+03
 1.590370672E+03	 3.774199951E+03
 1.590880190E+03	 3.783600098E+03
 1.591389654E+03	 3.752600098E+03
 1.591899064E+03	 3.775600098E+03
 1.592408419E+03	 3.750600098E+03
