1043.585098	8397.599609
1044.151424	8468.599609
1044.717692	8388.200195
1045.283903	8427.799805
1045.850056	8386.400391
1046.416151	8448.599609
1046.982188	8373.799805
1047.548167	8434.400391
1048.114089	8401.599609
1048.679953	8428.599609
1049.24576	8353.200195
1049.811509	8430.799805
1050.3772	8315.200195
1050.942833	8402.200195
1051.508408	8335.0
1052.073926	8324.0
1052.639387	8345.400391
1053.204789	8359.599609
1053.770134	8392.400391
1054.335421	8360.200195
1054.900651	8315.599609
1055.465823	8295.599609
1056.030937	8285.799805
1056.595993	8326.799805
1057.160992	8293.799805
1057.725934	8328.400391
1058.290817	8300.599609
1058.855643	8293.599609
1059.420411	8225.0
1059.985122	8294.200195
1060.549775	8259.0
1061.114371	8276.0
1061.678908	8242.0
1062.243389	8243.599609
1062.807811	8244.200195
1063.372176	8241.400391
1063.936483	8191.399902
1064.500733	8155.200195
1065.064925	8272.599609
1065.62906	8248.200195
1066.193137	8209.0
1066.757156	8178.600098
1067.321118	8177.600098
1067.885022	8169.399902
1068.448869	8206.400391
1069.012658	8172.0
1069.57639	8212.799805
1070.140063	8207.0
1070.70368	8139.0
1071.267239	8177.0
1071.83074	8171.399902
1072.394184	8167.600098
1072.95757	8138.600098
1073.520899	8181.399902
1074.08417	8146.0
1074.647383	8131.600098
1075.21054	8159.399902
1075.773638	8129.399902
1076.336679	8126.0
1076.899663	8023.200195
1077.462589	8057.399902
1078.025457	8109.799805
1078.588268	8036.399902
1079.151022	8075.200195
1079.713718	8016.799805
1080.276356	8046.600098
1080.838937	8008.799805
1081.401461	8026.0
1081.963927	7997.0
1082.526336	8002.600098
1083.088687	8039.600098
1083.650981	7983.200195
1084.213217	7975.200195
1084.775396	8004.799805
1085.337517	7972.600098
1085.899581	7971.600098
1086.461587	7995.799805
1087.023536	7991.600098
1087.585428	7976.600098
1088.147262	7981.799805
1088.709039	8006.799805
1089.270758	7943.799805
1089.83242	7961.399902
1090.394024	7932.399902
1090.955571	7930.0
1091.517061	7872.200195
1092.078493	7866.0
1092.639868	7852.200195
1093.201185	7864.799805
1093.762445	7862.399902
1094.323648	7872.0
1094.884793	7838.0
1095.445881	7852.200195
1096.006911	7823.799805
1096.567884	7832.600098
1097.1288	7788.399902
1097.689659	7812.200195
1098.25046	7793.799805
1098.811203	7798.0
1099.37189	7793.0
1099.932518	7787.200195
1100.49309	7771.799805
1101.053604	7776.200195
1101.614061	7726.200195
1102.174461	7723.200195
1102.734803	7660.799805
1103.295088	7726.0
1103.855316	7665.799805
1104.415486	7710.600098
1104.975599	7663.200195
1105.535655	7630.600098
1106.095653	7648.799805
1106.655594	7689.200195
1107.215478	7644.0
1107.775305	7646.0
1108.335074	7651.799805
1108.894786	7625.399902
1109.45444	7615.200195
1110.014038	7600.399902
1110.573578	7573.399902
1111.133061	7628.399902
1111.692486	7570.600098
1112.251854	7568.0
1112.811165	7576.600098
1113.370419	7562.799805
1113.929616	7571.399902
1114.488755	7576.0
1115.047837	7556.799805
1115.606862	7554.600098
1116.16583	7625.0
1116.72474	7578.799805
1117.283593	7524.0
1117.842389	7478.0
1118.401128	7517.0
1118.959809	7511.799805
1119.518433	7489.600098
1120.077	7460.600098
1120.63551	7500.600098
1121.193963	7459.200195
1121.752358	7477.0
1122.310697	7461.600098
1122.868978	7458.0
1123.427202	7458.200195
1123.985368	7446.200195
1124.543478	7432.399902
1125.10153	7465.600098
1125.659526	7411.200195
1126.217464	7405.600098
1126.775345	7408.399902
1127.333168	7463.600098
1127.890935	7378.200195
1128.448644	7441.0
1129.006297	7395.799805
1129.563892	7370.200195
1130.12143	7400.200195
1130.678911	7372.799805
1131.236335	7371.399902
1131.793701	7442.0
1132.351011	7408.399902
1132.908263	7375.399902
1133.465458	7338.799805
1134.022597	7369.0
1134.579678	7383.399902
1135.136702	7417.0
1135.693669	7387.799805
1136.250578	7385.0
1136.807431	7369.600098
1137.364227	7372.0
1137.920965	7330.200195
1138.477647	7416.0
1139.034271	7335.399902
1139.590839	7332.399902
1140.147349	7344.0
1140.703802	7351.0
1141.260198	7309.399902
1141.816537	7352.200195
1142.37282	7363.600098
1142.929045	7296.399902
1143.485213	7305.0
1144.041323	7341.799805
1144.597377	7275.799805
1145.153374	7321.600098
1145.709314	7306.600098
1146.265197	7294.200195
1146.821023	7329.399902
1147.376792	7319.399902
1147.932503	7340.399902
1148.488158	7307.799805
1149.043756	7283.0
1149.599297	7325.0
1150.154781	7288.799805
1150.710207	7340.0
1151.265577	7343.0
1151.82089	7356.799805
1152.376146	7296.600098
1152.931345	7263.0
1153.486487	7255.600098
1154.041572	7288.399902
1154.5966	7259.200195
1155.151571	7278.799805
1155.706485	7249.399902
1156.261342	7280.0
1156.816142	7264.200195
1157.370885	7273.600098
1157.925572	7228.399902
1158.480201	7281.0
1159.034774	7243.399902
1159.589289	7259.600098
1160.143748	7250.200195
1160.698149	7240.399902
1161.252494	7236.600098
1161.806782	7218.600098
1162.361013	7204.0
1162.915187	7219.600098
1163.469304	7218.399902
1164.023364	7227.600098
1164.577368	7224.0
1165.131314	7218.0
1165.685204	7146.399902
1166.239036	7176.799805
1166.792812	7193.200195
1167.346531	7235.799805
1167.900193	7194.200195
1168.453798	7158.0
1169.007347	7165.200195
1169.560838	7134.799805
1170.114273	7206.0
1170.66765	7164.799805
1171.220971	7159.600098
1171.774235	7142.600098
1172.327443	7152.200195
1172.880593	7132.600098
1173.433687	7176.799805
1173.986723	7136.0
1174.539703	7144.200195
1175.092626	7131.600098
1175.645493	7155.0
1176.198302	7099.399902
1176.751055	7136.200195
1177.303751	7099.600098
1177.85639	7136.799805
1178.408972	7093.799805
1178.961498	7079.600098
1179.513966	7075.600098
1180.066378	7106.200195
1180.618733	7044.200195
1181.171032	7111.399902
1181.723273	7057.799805
1182.275458	7100.200195
1182.827586	7030.799805
1183.379657	7055.0
1183.931672	7031.799805
1184.48363	7047.600098
1185.035531	7078.799805
1185.587375	7037.200195
1186.139162	7026.600098
1186.690893	7014.0
1187.242567	7034.200195
1187.794184	6992.399902
1188.345745	7022.200195
1188.897249	6980.399902
1189.448696	7013.200195
1190.000086	6989.200195
1190.55142	6980.600098
1191.102697	6982.0
1191.653918	7032.799805
1192.205081	7026.0
1192.756188	6981.600098
1193.307238	6958.200195
1193.858232	6979.799805
1194.409169	6974.0
1194.960049	6960.799805
1195.510872	6958.200195
1196.061639	6919.399902
1196.612349	6924.600098
1197.163003	6937.200195
1197.713599	6926.399902
1198.264139	6915.0
1198.814623	6918.600098
1199.36505	6915.600098
1199.91542	6869.0
1200.465734	6921.799805
1201.01599	6903.0
1201.566191	6908.399902
1202.116334	6848.799805
1202.666421	6867.399902
1203.216452	6880.200195
1203.766425	6875.600098
1204.316343	6910.600098
1204.866203	6882.600098
1205.416007	6880.200195
1205.965754	6818.799805
1206.515445	6832.799805
1207.065079	6845.600098
1207.614657	6845.600098
1208.164177	6834.600098
1208.713642	6859.600098
1209.26305	6803.600098
1209.812401	6815.0
1210.361695	6780.600098
1210.910933	6833.399902
1211.460115	6795.399902
1212.00924	6775.0
1212.558308	6773.600098
1213.10732	6768.0
1213.656275	6793.200195
1214.205174	6785.200195
1214.754016	6730.600098
1215.302801	6738.200195
1215.85153	6761.600098
1216.400203	6742.0
1216.948819	6716.0
1217.497378	6746.399902
1218.045881	6719.200195
1218.594327	6683.0
1219.142717	6709.799805
1219.691051	6741.399902
1220.239327	6709.600098
1220.787548	6701.799805
1221.335712	6714.799805
1221.883819	6661.799805
1222.43187	6719.399902
1222.979864	6697.600098
1223.527802	6697.0
1224.075683	6636.200195
1224.623508	6661.0
1225.171277	6657.799805
1225.718989	6680.0
1226.266644	6639.600098
1226.814243	6661.0
1227.361786	6635.0
1227.909272	6658.600098
1228.456702	6621.799805
1229.004075	6632.200195
1229.551392	6644.0
1230.098652	6634.399902
1230.645856	6635.600098
1231.193003	6651.399902
1231.740094	6609.0
1232.287129	6618.799805
1232.834107	6611.399902
1233.381029	6603.600098
1233.927894	6614.399902
1234.474703	6608.399902
1235.021455	6595.200195
1235.568151	6576.399902
1236.114791	6597.799805
1236.661374	6573.200195
1237.207901	6583.200195
1237.754372	6574.799805
1238.300786	6560.600098
1238.847144	6539.200195
1239.393445	6558.0
1239.93969	6543.600098
1240.485879	6549.399902
1241.032011	6582.399902
1241.578087	6574.200195
1242.124106	6530.0
1242.67007	6565.399902
1243.215976	6481.600098
1243.761827	6585.600098
1244.307621	6583.0
1244.853359	6505.200195
1245.39904	6502.799805
1245.944665	6486.0
1246.490234	6490.399902
1247.035746	6556.799805
1247.581203	6483.799805
1248.126602	6490.399902
1248.671946	6508.399902
1249.217233	6491.799805
1249.762464	6477.399902
1250.307638	6511.399902
1250.852757	6496.600098
1251.397819	6449.600098
1251.942824	6430.200195
1252.487774	6507.600098
1253.032667	6496.0
1253.577503	6474.0
1254.122284	6460.399902
1254.667008	6447.600098
1255.211676	6515.0
1255.756288	6456.399902
1256.300843	6465.0
1256.845342	6439.399902
1257.389785	6435.0
1257.934172	6422.0
1258.478502	6453.600098
1259.022776	6412.799805
1259.566994	6428.0
1260.111156	6373.200195
1260.655261	6390.0
1261.199311	6384.399902
1261.743304	6388.399902
1262.28724	6409.799805
1262.831121	6457.799805
1263.374945	6384.600098
1263.918713	6426.200195
1264.462425	6356.399902
1265.006081	6426.799805
1265.54968	6402.600098
1266.093223	6405.399902
1266.636711	6389.0
1267.180141	6371.600098
1267.723516	6374.200195
1268.266835	6372.799805
1268.810097	6385.200195
1269.353303	6360.799805
1269.896453	6328.399902
1270.439547	6376.799805
1270.982584	6350.200195
1271.525566	6346.0
1272.068491	6339.0
1272.61136	6321.799805
1273.154173	6349.399902
1273.69693	6331.0
1274.239631	6332.399902
1274.782275	6306.399902
1275.324864	6324.200195
1275.867396	6313.399902
1276.409872	6330.200195
1276.952292	6287.799805
1277.494656	6288.399902
1278.036964	6264.200195
1278.579215	6251.399902
1279.121411	6304.399902
1279.66355	6262.0
1280.205634	6331.799805
1280.747661	6298.0
1281.289632	6286.0
1281.831547	6230.0
1282.373406	6304.200195
1282.915209	6244.0
1283.456955	6263.600098
1283.998646	6305.600098
1284.540281	6283.0
1285.081859	6301.200195
1285.623381	6626.799805
1286.164848	6623.799805
1286.706258	6368.0
1287.247612	6256.200195
1287.788911	6247.0
1288.330153	6223.200195
1288.871339	6215.0
1289.412469	6241.0
1289.953543	6224.399902
1290.494561	6214.399902
1291.035523	6241.600098
1291.576428	6231.799805
1292.117278	6200.799805
1292.658072	6206.200195
1293.19881	6178.200195
1293.739492	6145.799805
1294.280118	6152.600098
1294.820687	6142.200195
1295.361201	6166.0
1295.901659	6176.0
1296.442061	6142.399902
1296.982406	6161.799805
1297.522696	6182.600098
1298.06293	6177.0
1298.603108	6156.399902
1299.143229	6141.200195
1299.683295	6131.399902
1300.223305	6116.200195
1300.763259	6139.0
1301.303157	6129.600098
1301.842999	6077.399902
1302.382785	6123.600098
1302.922515	6072.399902
1303.462189	6140.399902
1304.001807	6087.600098
1304.541369	6122.600098
1305.080875	6100.600098
1305.620326	6140.600098
1306.15972	6061.399902
1306.699058	6088.399902
1307.238341	6063.799805
1307.777567	6067.600098
1308.316738	6064.600098
1308.855853	6059.0
1309.394912	6106.0
1309.933915	6090.200195
1310.472862	6097.399902
1311.011753	6041.399902
1311.550588	6075.0
1312.089367	6030.0
1312.62809	6071.399902
1313.166758	6015.200195
1313.70537	6094.799805
1314.243925	6052.600098
1314.782425	6078.600098
1315.320869	6018.0
1315.859257	6046.799805
1316.397589	5959.600098
1316.935866	6045.0
1317.474086	6025.600098
1318.012251	6013.0
1318.55036	6013.600098
1319.088413	6022.399902
1319.62641	6013.0
1320.164351	5964.200195
1320.702236	6005.600098
1321.240066	5987.399902
1321.777839	6030.799805
1322.315557	5987.200195
1322.853219	5987.799805
1323.390826	5977.799805
1323.928376	5964.799805
1324.465871	5960.200195
1325.003309	5953.799805
1325.540692	5919.399902
1326.07802	5981.0
1326.615291	5965.200195
1327.152506	5971.799805
1327.689666	5913.600098
1328.22677	5965.600098
1328.763818	5954.600098
1329.300811	5908.0
1329.837747	5927.600098
1330.374628	5908.200195
1330.911453	5913.799805
1331.448222	5944.200195
1331.984936	5912.399902
1332.521594	5906.799805
1333.058196	5907.399902
1333.594742	5926.200195
1334.131232	5938.0
1334.667667	5880.600098
1335.204046	5883.0
1335.740369	5862.600098
1336.276637	5864.200195
1336.812848	5864.600098
1337.349004	5890.0
1337.885105	5902.399902
1338.421149	5890.200195
1338.957138	5857.0
1339.493071	5907.799805
1340.028949	5841.200195
1340.56477	5847.0
1341.100536	5845.799805
1341.636246	5853.600098
1342.171901	5836.799805
1342.7075	5859.200195
1343.243043	5824.200195
1343.77853	5844.799805
1344.313962	5847.200195
1344.849338	5836.399902
1345.384659	5812.600098
1345.919923	5836.200195
1346.455133	5815.799805
1346.990286	5795.200195
1347.525384	5829.399902
1348.060426	5741.600098
1348.595412	5792.200195
1349.130343	5793.0
1349.665218	5845.0
1350.200037	5762.200195
1350.734801	5809.600098
1351.269509	5773.0
1351.804162	5844.600098
1352.338758	5758.0
1352.8733	5754.0
1353.407785	5763.600098
1353.942215	5760.399902
1354.476589	5781.399902
1355.010908	5763.600098
1355.545171	5762.200195
1356.079379	5764.0
1356.61353	5743.600098
1357.147627	5762.600098
1357.681667	5730.600098
1358.215652	5731.399902
1358.749582	5789.0
1359.283456	5713.399902
1359.817274	5743.799805
1360.351037	5718.399902
1360.884744	5761.200195
1361.418395	5647.799805
1361.951991	5705.600098
1362.485531	5672.600098
1363.019016	5689.600098
1363.552445	5650.200195
1364.085819	5726.799805
1364.619137	5701.799805
1365.1524	5689.200195
1365.685607	5696.399902
1366.218758	5666.600098
1366.751854	5714.399902
1367.284894	5661.0
1367.817879	5722.399902
1368.350808	5628.799805
1368.883682	5680.399902
1369.4165	5634.799805
1369.949263	5655.600098
1370.48197	5655.399902
1371.014622	5693.799805
1371.547218	5627.799805
1372.079758	5666.799805
1372.612244	5666.0
1373.144673	5621.600098
1373.677047	5603.600098
1374.209366	5607.600098
1374.741629	5595.399902
1375.273836	5616.399902
1375.805989	5605.600098
1376.338085	5609.399902
1376.870126	5652.799805
1377.402112	5597.399902
1377.934042	5629.600098
1378.465917	5573.399902
1378.997736	5613.0
1379.5295	5563.399902
1380.061208	5624.600098
1380.592861	5573.399902
1381.124459	5604.799805
1381.656	5571.200195
1382.187487	5583.200195
1382.718918	5593.600098
1383.250294	5559.799805
1383.781614	5588.399902
1384.312879	5544.799805
1384.844088	5560.799805
1385.375242	5541.600098
1385.90634	5557.0
1386.437383	5553.600098
1386.968371	5602.600098
1387.499303	5577.799805
1388.03018	5653.799805
1388.561001	5867.0
1389.091767	6267.799805
1389.622478	5714.399902
1390.153133	5579.0
1390.683733	5540.799805
1391.214277	5545.200195
1391.744766	5543.0
1392.2752	5520.600098
1392.805578	5544.0
1393.335901	5482.600098
1393.866168	5544.399902
1394.396381	5483.200195
1394.926537	5543.600098
1395.456639	5460.799805
1395.986685	5515.600098
1396.516675	5494.799805
1397.046611	5551.200195
1397.576491	5476.0
1398.106315	5547.200195
1398.636084	5532.399902
1399.165798	5504.399902
1399.695457	5512.399902
1400.22506	5480.600098
1400.754608	5469.0
1401.284101	5491.0
1401.813538	5503.0
1402.34292	5470.399902
1402.872247	5543.600098
1403.401518	5445.0
1403.930734	5504.399902
1404.459895	5443.799805
1404.989	5489.0
1405.51805	5413.200195
1406.047045	5445.0
1406.575984	5392.799805
1407.104869	5431.600098
1407.633697	5453.399902
1408.162471	5455.0
1408.691189	5466.200195
1409.219852	5441.0
1409.74846	5490.399902
1410.277013	5504.399902
1410.80551	5486.399902
1411.333952	5429.600098
1411.862339	5462.600098
1412.39067	5434.799805
1412.918946	5427.0
1413.447167	5402.0
1413.975333	5430.600098
1414.503444	5385.600098
1415.031499	5413.799805
1415.559499	5399.799805
1416.087444	5389.799805
1416.615333	5379.799805
1417.143167	5395.200195
1417.670947	5360.399902
1418.19867	5381.399902
1418.726339	5401.200195
1419.253952	5406.399902
1419.781511	5406.0
1420.309014	5381.799805
1420.836461	5373.200195
1421.363854	5361.0
1421.891191	5366.799805
1422.418474	5351.799805
1422.945701	5380.600098
1423.472872	5361.600098
1423.999989	5362.399902
1424.52705	5367.600098
1425.054057	5377.200195
1425.581008	5365.799805
1426.107904	5376.799805
1426.634745	5350.0
1427.16153	5378.799805
1427.688261	5361.0
1428.214936	5340.399902
1428.741556	5329.399902
1429.268121	5319.399902
1429.794631	5345.200195
1430.321085	5346.799805
1430.847485	5369.399902
1431.373829	5333.399902
1431.900118	5273.600098
1432.426353	5333.799805
1432.952532	5307.600098
1433.478655	5291.799805
1434.004724	5316.600098
1434.530738	5295.600098
1435.056696	5315.200195
1435.5826	5316.200195
1436.108448	5268.399902
1436.634241	5276.799805
1437.159979	5239.200195
1437.685662	5273.399902
1438.21129	5255.399902
1438.736863	5287.0
1439.262381	5260.799805
1439.787843	5276.799805
1440.313251	5288.799805
1440.838603	5263.799805
1441.3639	5251.799805
1441.889143	5263.0
1442.41433	5262.399902
1442.939462	5276.0
1443.464539	5244.399902
1443.989561	5272.399902
1444.514528	5243.799805
1445.03944	5226.799805
1445.564297	5247.399902
1446.089099	5250.0
1446.613846	5262.0
1447.138537	5265.399902
1447.663174	5285.799805
1448.187756	5229.600098
1448.712282	5222.600098
1449.236754	5243.600098
1449.761171	5187.600098
1450.285532	5207.399902
1450.809839	5214.600098
1451.33409	5195.600098
1451.858287	5171.0
1452.382428	5189.799805
1452.906515	5167.0
1453.430546	5174.600098
1453.954523	5177.600098
1454.478444	5211.600098
1455.002311	5189.799805
1455.526123	5178.600098
1456.049879	5177.600098
1456.573581	5164.600098
1457.097227	5159.799805
1457.620819	5167.799805
1458.144356	5179.600098
1458.667837	5144.600098
1459.191264	5121.0
1459.714636	5186.600098
1460.237952	5140.600098
1460.761214	5162.399902
1461.284421	5132.600098
1461.807573	5121.399902
1462.33067	5126.799805
1462.853712	5115.399902
1463.376699	5164.0
1463.899632	5125.0
1464.422509	5136.600098
1464.945331	5101.799805
1465.468099	5144.399902
1465.990811	5136.0
1466.513469	5041.799805
1467.036071	5109.200195
1467.558619	5102.600098
1468.081112	5133.399902
1468.60355	5147.600098
1469.125933	5144.600098
1469.648261	5088.200195
1470.170534	5104.399902
1470.692752	5073.799805
1471.214916	5053.0
1471.737024	5039.200195
1472.259078	5073.0
1472.781077	5069.200195
1473.303021	5055.200195
1473.82491	5085.600098
1474.346744	5073.0
1474.868523	5033.200195
1475.390248	5065.799805
1475.911917	5011.0
1476.433532	5036.200195
1476.955092	5034.600098
1477.476597	5049.200195
1477.998047	5016.600098
1478.519442	5027.0
1479.040783	5050.399902
1479.562068	5012.399902
1480.083299	5029.799805
1480.604475	5053.200195
1481.125596	4982.799805
1481.646663	5011.200195
1482.167674	5014.399902
1482.688631	4995.399902
1483.209533	5005.600098
1483.73038	5007.600098
1484.251172	5004.399902
1484.771909	5004.0
1485.292592	4996.0
1485.81322	4991.200195
1486.333793	4995.399902
1486.854311	4991.200195
1487.374775	4959.200195
1487.895183	4984.799805
1488.415537	4961.200195
1488.935836	4999.799805
1489.456081	4940.0
1489.97627	4972.0
1490.496405	4977.200195
1491.016485	4909.0
1491.536511	4961.600098
1492.056481	4927.600098
1492.576397	4945.0
1493.096258	4937.799805
1493.616064	4968.0
1494.135816	4942.399902
1494.655513	4968.0
1495.175155	4938.0
1495.694742	4947.399902
1496.214274	4880.600098
1496.733752	4931.0
1497.253175	4904.399902
1497.772544	4898.0
1498.291858	4932.399902
1498.811116	4931.600098
1499.330321	4909.399902
1499.84947	4893.799805
1500.368565	4877.399902
1500.887605	4883.799805
1501.406591	4905.799805
1501.925521	4868.0
1502.444397	4863.600098
1502.963219	4914.0
1503.481985	4894.799805
1504.000697	4882.200195
1504.519355	4883.600098
1505.037957	4845.799805
1505.556505	4848.0
1506.074999	4877.200195
1506.593437	4854.200195
1507.111821	4861.799805
1507.63015	4840.799805
1508.148425	4875.799805
1508.666645	4857.0
1509.18481	4871.0
1509.702921	4842.0
1510.220977	4856.200195
1510.738979	4820.399902
1511.256925	4809.799805
1511.774817	4828.200195
1512.292655	4877.0
1512.810438	4839.0
1513.328166	4818.0
1513.84584	4813.200195
1514.363459	4820.600098
1514.881023	4830.600098
1515.398533	4812.0
1515.915988	4852.799805
1516.433389	4826.0
1516.950734	4809.399902
1517.468026	4795.600098
1517.985263	4797.399902
1518.502445	4811.600098
1519.019572	4837.0
1519.536645	4803.600098
1520.053664	4784.200195
1520.570628	4837.200195
1521.087537	4784.0
1521.604392	4798.799805
1522.121192	4810.399902
1522.637937	4816.399902
1523.154628	4806.600098
1523.671265	4806.399902
1524.187847	4782.0
1524.704374	4766.799805
1525.220847	4771.200195
1525.737265	4751.200195
1526.253629	4813.799805
1526.769938	4799.0
1527.286192	4802.399902
1527.802392	4764.200195
1528.318538	4808.799805
1528.834629	4775.200195
1529.350666	4771.799805
1529.866648	4774.600098
1530.382575	4791.600098
1530.898448	4718.799805
1531.414266	4766.0
1531.93003	4819.200195
1532.44574	4795.600098
1532.961395	4837.799805
1533.476995	4763.0
1533.992541	4785.600098
1534.508033	4769.0
1535.02347	4747.399902
1535.538852	4755.0
1536.05418	4723.200195
1536.569454	4780.0
1537.084673	4739.399902
1537.599837	4758.799805
1538.114947	4709.200195
1538.630003	4780.399902
1539.145004	4729.799805
1539.659951	4749.799805
1540.174843	4736.399902
1540.689681	4725.200195
1541.204465	4739.600098
1541.719194	4756.399902
1542.233868	4746.600098
1542.748488	4738.799805
1543.263054	4756.0
1543.777565	4759.799805
1544.292022	4746.600098
1544.806424	4720.200195
1545.320772	4764.799805
1545.835066	4738.600098
1546.349305	4750.0
1546.863489	4748.600098
1547.37762	4704.399902
1547.891696	4738.600098
1548.405717	4689.799805
1548.919684	4714.200195
1549.433597	4712.600098
1549.947455	4711.399902
1550.461259	4718.399902
1550.975009	4735.799805
1551.488704	4695.399902
1552.002345	4685.799805
1552.515931	4721.200195
1553.029463	4720.200195
1553.542941	4734.0
1554.056364	4705.799805
1554.569733	4757.0
1555.083048	4697.600098
1555.596308	4720.799805
1556.109514	4661.799805
1556.622665	4670.399902
1557.135762	4673.799805
1557.648805	4724.600098
1558.161794	4692.399902
1558.674728	4712.0
1559.187608	4699.200195
1559.700433	4669.799805
1560.213205	4695.200195
1560.725921	4663.799805
1561.238584	4649.600098
1561.751192	4684.600098
1562.263746	4677.399902
1562.776246	4669.399902
1563.288691	4712.399902
1563.801082	4657.799805
1564.313419	4689.200195
1564.825701	4634.0
1565.337929	4645.600098
1565.850103	4676.200195
1566.362223	4696.399902
1566.874288	4702.399902
1567.386299	4654.200195
1567.898256	4663.399902
1568.410158	4651.200195
1568.922007	4641.600098
1569.4338	4636.0
1569.94554	4630.799805
1570.457226	4637.600098
1570.968857	4646.0
1571.480434	4677.0
1571.991956	4625.600098
1572.503425	4636.0
1573.014839	4629.399902
1573.526199	4670.200195
1574.037505	4621.399902
1574.548756	4612.399902
1575.059953	4671.399902
1575.571096	4607.200195
1576.082185	4671.600098
1576.59322	4624.600098
1577.1042	4660.399902
1577.615126	4607.200195
1578.125998	4639.200195
1578.636816	4601.0
1579.14758	4625.0
1579.658289	4614.0
1580.168944	4615.399902
1580.679545	4612.0
1581.190092	4557.200195
1581.700585	4593.399902
1582.211023	4551.0
1582.721407	4624.799805
1583.231737	4577.200195
1583.742013	4592.799805
1584.252235	4566.799805
1584.762403	4590.200195
1585.272516	4599.799805
1585.782575	4578.0
1586.292581	4580.799805
1586.802532	4551.799805
1587.312428	4610.0
1587.822271	4584.600098
1588.33206	4624.799805
1588.841794	4545.399902
1589.351474	4576.799805
1589.8611	4567.399902
1590.370672	4548.799805
1590.88019	4560.600098
1591.389654	4538.600098
1591.899064	4570.600098
1592.408419	4572.0
