 1.042452273E+03	 8.446799805E+03
 1.043018714E+03	 8.434000000E+03
 1.043585098E+03	 8.397599609E+03
 1.044151424E+03	 8.468599609E+03
 1.044717692E+03	 8.388200195E+03
 1.045283903E+03	 8.427799805E+03
 1.045850056E+03	 8.386400391E+03
 1.046416151E+03	 8.448599609E+03
 1.046982188E+03	 8.373799805E+03
 1.047548167E+03	 8.434400391E+03
 1.048114089E+03	 8.401599609E+03
 1.048679953E+03	 8.428599609E+03
 1.049245760E+03	 8.353200195E+03
 1.049811509E+03	 8.430799805E+03
 1.050377200E+03	 8.315200195E+03
 1.050942833E+03	 8.402200195E+03
 1.051508408E+03	 8.335000000E+03
 1.052073926E+03	 8.324000000E+03
 1.052639387E+03	 8.345400391E+03
 1.053204789E+03	 8.359599609E+03
 1.053770134E+03	 8.392400391E+03
 1.054335421E+03	 8.360200195E+03
 1.054900651E+03	 8.315599609E+03
 1.055465823E+03	 8.295599609E+03
 1.056030937E+03	 8.285799805E+03
 1.056595993E+03	 8.326799805E+03
 1.057160992E+03	 8.293799805E+03
 1.057725934E+03	 8.328400391E+03
 1.058290817E+03	 8.300599609E+03
 1.058855643E+03	 8.293599609E+03
 1.059420411E+03	 8.225000000E+03
 1.059985122E+03	 8.294200195E+03
 1.060549775E+03	 8.259000000E+03
 1.061114371E+03	 8.276000000E+03
 1.061678908E+03	 8.242000000E+03
 1.062243389E+03	 8.243599609E+03
 1.062807811E+03	 8.244200195E+03
 1.063372176E+03	 8.241400391E+03
 1.063936483E+03	 8.191399902E+03
 1.064500733E+03	 8.155200195E+03
 1.065064925E+03	 8.272599609E+03
 1.065629060E+03	 8.248200195E+03
 1.066193137E+03	 8.209000000E+03
 1.066757156E+03	 8.178600098E+03
 1.067321118E+03	 8.177600098E+03
 1.067885022E+03	 8.169399902E+03
 1.068448869E+03	 8.206400391E+03
 1.069012658E+03	 8.172000000E+03
 1.069576390E+03	 8.212799805E+03
 1.070140063E+03	 8.207000000E+03
 1.070703680E+03	 8.139000000E+03
 1.071267239E+03	 8.177000000E+03
 1.071830740E+03	 8.171399902E+03
 1.072394184E+03	 8.167600098E+03
 1.072957570E+03	 8.138600098E+03
 1.073520899E+03	 8.181399902E+03
 1.074084170E+03	 8.146000000E+03
 1.074647383E+03	 8.131600098E+03
 1.075210540E+03	 8.159399902E+03
 1.075773638E+03	 8.129399902E+03
 1.076336679E+03	 8.126000000E+03
 1.076899663E+03	 8.023200195E+03
 1.077462589E+03	 8.057399902E+03
 1.078025457E+03	 8.109799805E+03
 1.078588268E+03	 8.036399902E+03
 1.079151022E+03	 8.075200195E+03
 1.079713718E+03	 8.016799805E+03
 1.080276356E+03	 8.046600098E+03
 1.080838937E+03	 8.008799805E+03
 1.081401461E+03	 8.026000000E+03
 1.081963927E+03	 7.997000000E+03
 1.082526336E+03	 8.002600098E+03
 1.083088687E+03	 8.039600098E+03
 1.083650981E+03	 7.983200195E+03
 1.084213217E+03	 7.975200195E+03
 1.084775396E+03	 8.004799805E+03
 1.085337517E+03	 7.972600098E+03
 1.085899581E+03	 7.971600098E+03
 1.086461587E+03	 7.995799805E+03
 1.087023536E+03	 7.991600098E+03
 1.087585428E+03	 7.976600098E+03
 1.088147262E+03	 7.981799805E+03
 1.088709039E+03	 8.006799805E+03
 1.089270758E+03	 7.943799805E+03
 1.089832420E+03	 7.961399902E+03
 1.090394024E+03	 7.932399902E+03
 1.090955571E+03	 7.930000000E+03
 1.091517061E+03	 7.872200195E+03
 1.092078493E+03	 7.866000000E+03
 1.092639868E+03	 7.852200195E+03
 1.093201185E+03	 7.864799805E+03
 1.093762445E+03	 7.862399902E+03
 1.094323648E+03	 7.872000000E+03
 1.094884793E+03	 7.838000000E+03
 1.095445881E+03	 7.852200195E+03
 1.096006911E+03	 7.823799805E+03
 1.096567884E+03	 7.832600098E+03
 1.097128800E+03	 7.788399902E+03
 1.097689659E+03	 7.812200195E+03
 1.098250460E+03	 7.793799805E+03
 1.098811203E+03	 7.798000000E+03
 1.099371890E+03	 7.793000000E+03
 1.099932518E+03	 7.787200195E+03
 1.100493090E+03	 7.771799805E+03
 1.101053604E+03	 7.776200195E+03
 1.101614061E+03	 7.726200195E+03
 1.102174461E+03	 7.723200195E+03
 1.102734803E+03	 7.660799805E+03
 1.103295088E+03	 7.726000000E+03
 1.103855316E+03	 7.665799805E+03
 1.104415486E+03	 7.710600098E+03
 1.104975599E+03	 7.663200195E+03
 1.105535655E+03	 7.630600098E+03
 1.106095653E+03	 7.648799805E+03
 1.106655594E+03	 7.689200195E+03
 1.107215478E+03	 7.644000000E+03
 1.107775305E+03	 7.646000000E+03
 1.108335074E+03	 7.651799805E+03
 1.108894786E+03	 7.625399902E+03
 1.109454440E+03	 7.615200195E+03
 1.110014038E+03	 7.600399902E+03
 1.110573578E+03	 7.573399902E+03
 1.111133061E+03	 7.628399902E+03
 1.111692486E+03	 7.570600098E+03
 1.112251854E+03	 7.568000000E+03
 1.112811165E+03	 7.576600098E+03
 1.113370419E+03	 7.562799805E+03
 1.113929616E+03	 7.571399902E+03
 1.114488755E+03	 7.576000000E+03
 1.115047837E+03	 7.556799805E+03
 1.115606862E+03	 7.554600098E+03
 1.116165830E+03	 7.625000000E+03
 1.116724740E+03	 7.578799805E+03
 1.117283593E+03	 7.524000000E+03
 1.117842389E+03	 7.478000000E+03
 1.118401128E+03	 7.517000000E+03
 1.118959809E+03	 7.511799805E+03
 1.119518433E+03	 7.489600098E+03
 1.120077000E+03	 7.460600098E+03
 1.120635510E+03	 7.500600098E+03
 1.121193963E+03	 7.459200195E+03
 1.121752358E+03	 7.477000000E+03
 1.122310697E+03	 7.461600098E+03
 1.122868978E+03	 7.458000000E+03
 1.123427202E+03	 7.458200195E+03
 1.123985368E+03	 7.446200195E+03
 1.124543478E+03	 7.432399902E+03
 1.125101530E+03	 7.465600098E+03
 1.125659526E+03	 7.411200195E+03
 1.126217464E+03	 7.405600098E+03
 1.126775345E+03	 7.408399902E+03
 1.127333168E+03	 7.463600098E+03
 1.127890935E+03	 7.378200195E+03
 1.128448644E+03	 7.441000000E+03
 1.129006297E+03	 7.395799805E+03
 1.129563892E+03	 7.370200195E+03
 1.130121430E+03	 7.400200195E+03
 1.130678911E+03	 7.372799805E+03
 1.131236335E+03	 7.371399902E+03
 1.131793701E+03	 7.442000000E+03
 1.132351011E+03	 7.408399902E+03
 1.132908263E+03	 7.375399902E+03
 1.133465458E+03	 7.338799805E+03
 1.134022597E+03	 7.369000000E+03
 1.134579678E+03	 7.383399902E+03
 1.135136702E+03	 7.417000000E+03
 1.135693669E+03	 7.387799805E+03
 1.136250578E+03	 7.385000000E+03
 1.136807431E+03	 7.369600098E+03
 1.137364227E+03	 7.372000000E+03
 1.137920965E+03	 7.330200195E+03
 1.138477647E+03	 7.416000000E+03
 1.139034271E+03	 7.335399902E+03
 1.139590839E+03	 7.332399902E+03
 1.140147349E+03	 7.344000000E+03
 1.140703802E+03	 7.351000000E+03
 1.141260198E+03	 7.309399902E+03
 1.141816537E+03	 7.352200195E+03
 1.142372820E+03	 7.363600098E+03
 1.142929045E+03	 7.296399902E+03
 1.143485213E+03	 7.305000000E+03
 1.144041323E+03	 7.341799805E+03
 1.144597377E+03	 7.275799805E+03
 1.145153374E+03	 7.321600098E+03
 1.145709314E+03	 7.306600098E+03
 1.146265197E+03	 7.294200195E+03
 1.146821023E+03	 7.329399902E+03
 1.147376792E+03	 7.319399902E+03
 1.147932503E+03	 7.340399902E+03
 1.148488158E+03	 7.307799805E+03
 1.149043756E+03	 7.283000000E+03
 1.149599297E+03	 7.325000000E+03
 1.150154781E+03	 7.288799805E+03
 1.150710207E+03	 7.340000000E+03
 1.151265577E+03	 7.343000000E+03
 1.151820890E+03	 7.356799805E+03
 1.152376146E+03	 7.296600098E+03
 1.152931345E+03	 7.263000000E+03
 1.153486487E+03	 7.255600098E+03
 1.154041572E+03	 7.288399902E+03
 1.154596600E+03	 7.259200195E+03
 1.155151571E+03	 7.278799805E+03
 1.155706485E+03	 7.249399902E+03
 1.156261342E+03	 7.280000000E+03
 1.156816142E+03	 7.264200195E+03
 1.157370885E+03	 7.273600098E+03
 1.157925572E+03	 7.228399902E+03
 1.158480201E+03	 7.281000000E+03
 1.159034774E+03	 7.243399902E+03
 1.159589289E+03	 7.259600098E+03
 1.160143748E+03	 7.250200195E+03
 1.160698149E+03	 7.240399902E+03
 1.161252494E+03	 7.236600098E+03
 1.161806782E+03	 7.218600098E+03
 1.162361013E+03	 7.204000000E+03
 1.162915187E+03	 7.219600098E+03
 1.163469304E+03	 7.218399902E+03
 1.164023364E+03	 7.227600098E+03
 1.164577368E+03	 7.224000000E+03
 1.165131314E+03	 7.218000000E+03
 1.165685204E+03	 7.146399902E+03
 1.166239036E+03	 7.176799805E+03
 1.166792812E+03	 7.193200195E+03
 1.167346531E+03	 7.235799805E+03
 1.167900193E+03	 7.194200195E+03
 1.168453798E+03	 7.158000000E+03
 1.169007347E+03	 7.165200195E+03
 1.169560838E+03	 7.134799805E+03
 1.170114273E+03	 7.206000000E+03
 1.170667650E+03	 7.164799805E+03
 1.171220971E+03	 7.159600098E+03
 1.171774235E+03	 7.142600098E+03
 1.172327443E+03	 7.152200195E+03
 1.172880593E+03	 7.132600098E+03
 1.173433687E+03	 7.176799805E+03
 1.173986723E+03	 7.136000000E+03
 1.174539703E+03	 7.144200195E+03
 1.175092626E+03	 7.131600098E+03
 1.175645493E+03	 7.155000000E+03
 1.176198302E+03	 7.099399902E+03
 1.176751055E+03	 7.136200195E+03
 1.177303751E+03	 7.099600098E+03
 1.177856390E+03	 7.136799805E+03
 1.178408972E+03	 7.093799805E+03
 1.178961498E+03	 7.079600098E+03
 1.179513966E+03	 7.075600098E+03
 1.180066378E+03	 7.106200195E+03
 1.180618733E+03	 7.044200195E+03
 1.181171032E+03	 7.111399902E+03
 1.181723273E+03	 7.057799805E+03
 1.182275458E+03	 7.100200195E+03
 1.182827586E+03	 7.030799805E+03
 1.183379657E+03	 7.055000000E+03
 1.183931672E+03	 7.031799805E+03
 1.184483630E+03	 7.047600098E+03
 1.185035531E+03	 7.078799805E+03
 1.185587375E+03	 7.037200195E+03
 1.186139162E+03	 7.026600098E+03
 1.186690893E+03	 7.014000000E+03
 1.187242567E+03	 7.034200195E+03
 1.187794184E+03	 6.992399902E+03
 1.188345745E+03	 7.022200195E+03
 1.188897249E+03	 6.980399902E+03
 1.189448696E+03	 7.013200195E+03
 1.190000086E+03	 6.989200195E+03
 1.190551420E+03	 6.980600098E+03
 1.191102697E+03	 6.982000000E+03
 1.191653918E+03	 7.032799805E+03
 1.192205081E+03	 7.026000000E+03
 1.192756188E+03	 6.981600098E+03
 1.193307238E+03	 6.958200195E+03
 1.193858232E+03	 6.979799805E+03
 1.194409169E+03	 6.974000000E+03
 1.194960049E+03	 6.960799805E+03
 1.195510872E+03	 6.958200195E+03
 1.196061639E+03	 6.919399902E+03
 1.196612349E+03	 6.924600098E+03
 1.197163003E+03	 6.937200195E+03
 1.197713599E+03	 6.926399902E+03
 1.198264139E+03	 6.915000000E+03
 1.198814623E+03	 6.918600098E+03
 1.199365050E+03	 6.915600098E+03
 1.199915420E+03	 6.869000000E+03
 1.200465734E+03	 6.921799805E+03
 1.201015990E+03	 6.903000000E+03
 1.201566191E+03	 6.908399902E+03
 1.202116334E+03	 6.848799805E+03
 1.202666421E+03	 6.867399902E+03
 1.203216452E+03	 6.880200195E+03
 1.203766425E+03	 6.875600098E+03
 1.204316343E+03	 6.910600098E+03
 1.204866203E+03	 6.882600098E+03
 1.205416007E+03	 6.880200195E+03
 1.205965754E+03	 6.818799805E+03
 1.206515445E+03	 6.832799805E+03
 1.207065079E+03	 6.845600098E+03
 1.207614657E+03	 6.845600098E+03
 1.208164177E+03	 6.834600098E+03
 1.208713642E+03	 6.859600098E+03
 1.209263050E+03	 6.803600098E+03
 1.209812401E+03	 6.815000000E+03
 1.210361695E+03	 6.780600098E+03
 1.210910933E+03	 6.833399902E+03
 1.211460115E+03	 6.795399902E+03
 1.212009240E+03	 6.775000000E+03
 1.212558308E+03	 6.773600098E+03
 1.213107320E+03	 6.768000000E+03
 1.213656275E+03	 6.793200195E+03
 1.214205174E+03	 6.785200195E+03
 1.214754016E+03	 6.730600098E+03
 1.215302801E+03	 6.738200195E+03
 1.215851530E+03	 6.761600098E+03
 1.216400203E+03	 6.742000000E+03
 1.216948819E+03	 6.716000000E+03
 1.217497378E+03	 6.746399902E+03
 1.218045881E+03	 6.719200195E+03
 1.218594327E+03	 6.683000000E+03
 1.219142717E+03	 6.709799805E+03
 1.219691051E+03	 6.741399902E+03
 1.220239327E+03	 6.709600098E+03
 1.220787548E+03	 6.701799805E+03
 1.221335712E+03	 6.714799805E+03
 1.221883819E+03	 6.661799805E+03
 1.222431870E+03	 6.719399902E+03
 1.222979864E+03	 6.697600098E+03
 1.223527802E+03	 6.697000000E+03
 1.224075683E+03	 6.636200195E+03
 1.224623508E+03	 6.661000000E+03
 1.225171277E+03	 6.657799805E+03
 1.225718989E+03	 6.680000000E+03
 1.226266644E+03	 6.639600098E+03
 1.226814243E+03	 6.661000000E+03
 1.227361786E+03	 6.635000000E+03
 1.227909272E+03	 6.658600098E+03
 1.228456702E+03	 6.621799805E+03
 1.229004075E+03	 6.632200195E+03
 1.229551392E+03	 6.644000000E+03
 1.230098652E+03	 6.634399902E+03
 1.230645856E+03	 6.635600098E+03
 1.231193003E+03	 6.651399902E+03
 1.231740094E+03	 6.609000000E+03
 1.232287129E+03	 6.618799805E+03
 1.232834107E+03	 6.611399902E+03
 1.233381029E+03	 6.603600098E+03
 1.233927894E+03	 6.614399902E+03
 1.234474703E+03	 6.608399902E+03
 1.235021455E+03	 6.595200195E+03
 1.235568151E+03	 6.576399902E+03
 1.236114791E+03	 6.597799805E+03
 1.236661374E+03	 6.573200195E+03
 1.237207901E+03	 6.583200195E+03
 1.237754372E+03	 6.574799805E+03
 1.238300786E+03	 6.560600098E+03
 1.238847144E+03	 6.539200195E+03
 1.239393445E+03	 6.558000000E+03
 1.239939690E+03	 6.543600098E+03
 1.240485879E+03	 6.549399902E+03
 1.241032011E+03	 6.582399902E+03
 1.241578087E+03	 6.574200195E+03
 1.242124106E+03	 6.530000000E+03
 1.242670070E+03	 6.565399902E+03
 1.243215976E+03	 6.481600098E+03
 1.243761827E+03	 6.585600098E+03
 1.244307621E+03	 6.583000000E+03
 1.244853359E+03	 6.505200195E+03
 1.245399040E+03	 6.502799805E+03
 1.245944665E+03	 6.486000000E+03
 1.246490234E+03	 6.490399902E+03
 1.247035746E+03	 6.556799805E+03
 1.247581203E+03	 6.483799805E+03
 1.248126602E+03	 6.490399902E+03
 1.248671946E+03	 6.508399902E+03
 1.249217233E+03	 6.491799805E+03
 1.249762464E+03	 6.477399902E+03
 1.250307638E+03	 6.511399902E+03
 1.250852757E+03	 6.496600098E+03
 1.251397819E+03	 6.449600098E+03
 1.251942824E+03	 6.430200195E+03
 1.252487774E+03	 6.507600098E+03
 1.253032667E+03	 6.496000000E+03
 1.253577503E+03	 6.474000000E+03
 1.254122284E+03	 6.460399902E+03
 1.254667008E+03	 6.447600098E+03
 1.255211676E+03	 6.515000000E+03
 1.255756288E+03	 6.456399902E+03
 1.256300843E+03	 6.465000000E+03
 1.256845342E+03	 6.439399902E+03
 1.257389785E+03	 6.435000000E+03
 1.257934172E+03	 6.422000000E+03
 1.258478502E+03	 6.453600098E+03
 1.259022776E+03	 6.412799805E+03
 1.259566994E+03	 6.428000000E+03
 1.260111156E+03	 6.373200195E+03
 1.260655261E+03	 6.390000000E+03
 1.261199311E+03	 6.384399902E+03
 1.261743304E+03	 6.388399902E+03
 1.262287240E+03	 6.409799805E+03
 1.262831121E+03	 6.457799805E+03
 1.263374945E+03	 6.384600098E+03
 1.263918713E+03	 6.426200195E+03
 1.264462425E+03	 6.356399902E+03
 1.265006081E+03	 6.426799805E+03
 1.265549680E+03	 6.402600098E+03
 1.266093223E+03	 6.405399902E+03
 1.266636711E+03	 6.389000000E+03
 1.267180141E+03	 6.371600098E+03
 1.267723516E+03	 6.374200195E+03
 1.268266835E+03	 6.372799805E+03
 1.268810097E+03	 6.385200195E+03
 1.269353303E+03	 6.360799805E+03
 1.269896453E+03	 6.328399902E+03
 1.270439547E+03	 6.376799805E+03
 1.270982584E+03	 6.350200195E+03
 1.271525566E+03	 6.346000000E+03
 1.272068491E+03	 6.339000000E+03
 1.272611360E+03	 6.321799805E+03
 1.273154173E+03	 6.349399902E+03
 1.273696930E+03	 6.331000000E+03
 1.274239631E+03	 6.332399902E+03
 1.274782275E+03	 6.306399902E+03
 1.275324864E+03	 6.324200195E+03
 1.275867396E+03	 6.313399902E+03
 1.276409872E+03	 6.330200195E+03
 1.276952292E+03	 6.287799805E+03
 1.277494656E+03	 6.288399902E+03
 1.278036964E+03	 6.264200195E+03
 1.278579215E+03	 6.251399902E+03
 1.279121411E+03	 6.304399902E+03
 1.279663550E+03	 6.262000000E+03
 1.280205634E+03	 6.331799805E+03
 1.280747661E+03	 6.298000000E+03
 1.281289632E+03	 6.286000000E+03
 1.281831547E+03	 6.230000000E+03
 1.282373406E+03	 6.304200195E+03
 1.282915209E+03	 6.244000000E+03
 1.283456955E+03	 6.263600098E+03
 1.283998646E+03	 6.305600098E+03
 1.284540281E+03	 6.283000000E+03
 1.285081859E+03	 6.301200195E+03
 1.285623381E+03	 6.626799805E+03
 1.286164848E+03	 6.623799805E+03
 1.286706258E+03	 6.368000000E+03
 1.287247612E+03	 6.256200195E+03
 1.287788911E+03	 6.247000000E+03
 1.288330153E+03	 6.223200195E+03
 1.288871339E+03	 6.215000000E+03
 1.289412469E+03	 6.241000000E+03
 1.289953543E+03	 6.224399902E+03
 1.290494561E+03	 6.214399902E+03
 1.291035523E+03	 6.241600098E+03
 1.291576428E+03	 6.231799805E+03
 1.292117278E+03	 6.200799805E+03
 1.292658072E+03	 6.206200195E+03
 1.293198810E+03	 6.178200195E+03
 1.293739492E+03	 6.145799805E+03
 1.294280118E+03	 6.152600098E+03
 1.294820687E+03	 6.142200195E+03
 1.295361201E+03	 6.166000000E+03
 1.295901659E+03	 6.176000000E+03
 1.296442061E+03	 6.142399902E+03
 1.296982406E+03	 6.161799805E+03
 1.297522696E+03	 6.182600098E+03
 1.298062930E+03	 6.177000000E+03
 1.298603108E+03	 6.156399902E+03
 1.299143229E+03	 6.141200195E+03
 1.299683295E+03	 6.131399902E+03
 1.300223305E+03	 6.116200195E+03
 1.300763259E+03	 6.139000000E+03
 1.301303157E+03	 6.129600098E+03
 1.301842999E+03	 6.077399902E+03
 1.302382785E+03	 6.123600098E+03
 1.302922515E+03	 6.072399902E+03
 1.303462189E+03	 6.140399902E+03
 1.304001807E+03	 6.087600098E+03
 1.304541369E+03	 6.122600098E+03
 1.305080875E+03	 6.100600098E+03
 1.305620326E+03	 6.140600098E+03
 1.306159720E+03	 6.061399902E+03
 1.306699058E+03	 6.088399902E+03
 1.307238341E+03	 6.063799805E+03
 1.307777567E+03	 6.067600098E+03
 1.308316738E+03	 6.064600098E+03
 1.308855853E+03	 6.059000000E+03
 1.309394912E+03	 6.106000000E+03
 1.309933915E+03	 6.090200195E+03
 1.310472862E+03	 6.097399902E+03
 1.311011753E+03	 6.041399902E+03
 1.311550588E+03	 6.075000000E+03
 1.312089367E+03	 6.030000000E+03
 1.312628090E+03	 6.071399902E+03
 1.313166758E+03	 6.015200195E+03
 1.313705370E+03	 6.094799805E+03
 1.314243925E+03	 6.052600098E+03
 1.314782425E+03	 6.078600098E+03
 1.315320869E+03	 6.018000000E+03
 1.315859257E+03	 6.046799805E+03
 1.316397589E+03	 5.959600098E+03
 1.316935866E+03	 6.045000000E+03
 1.317474086E+03	 6.025600098E+03
 1.318012251E+03	 6.013000000E+03
 1.318550360E+03	 6.013600098E+03
 1.319088413E+03	 6.022399902E+03
 1.319626410E+03	 6.013000000E+03
 1.320164351E+03	 5.964200195E+03
 1.320702236E+03	 6.005600098E+03
 1.321240066E+03	 5.987399902E+03
 1.321777839E+03	 6.030799805E+03
 1.322315557E+03	 5.987200195E+03
 1.322853219E+03	 5.987799805E+03
 1.323390826E+03	 5.977799805E+03
 1.323928376E+03	 5.964799805E+03
 1.324465871E+03	 5.960200195E+03
 1.325003309E+03	 5.953799805E+03
 1.325540692E+03	 5.919399902E+03
 1.326078020E+03	 5.981000000E+03
 1.326615291E+03	 5.965200195E+03
 1.327152506E+03	 5.971799805E+03
 1.327689666E+03	 5.913600098E+03
 1.328226770E+03	 5.965600098E+03
 1.328763818E+03	 5.954600098E+03
 1.329300811E+03	 5.908000000E+03
 1.329837747E+03	 5.927600098E+03
 1.330374628E+03	 5.908200195E+03
 1.330911453E+03	 5.913799805E+03
 1.331448222E+03	 5.944200195E+03
 1.331984936E+03	 5.912399902E+03
 1.332521594E+03	 5.906799805E+03
 1.333058196E+03	 5.907399902E+03
 1.333594742E+03	 5.926200195E+03
 1.334131232E+03	 5.938000000E+03
 1.334667667E+03	 5.880600098E+03
 1.335204046E+03	 5.883000000E+03
 1.335740369E+03	 5.862600098E+03
 1.336276637E+03	 5.864200195E+03
 1.336812848E+03	 5.864600098E+03
 1.337349004E+03	 5.890000000E+03
 1.337885105E+03	 5.902399902E+03
 1.338421149E+03	 5.890200195E+03
 1.338957138E+03	 5.857000000E+03
 1.339493071E+03	 5.907799805E+03
 1.340028949E+03	 5.841200195E+03
 1.340564770E+03	 5.847000000E+03
 1.341100536E+03	 5.845799805E+03
 1.341636246E+03	 5.853600098E+03
 1.342171901E+03	 5.836799805E+03
 1.342707500E+03	 5.859200195E+03
 1.343243043E+03	 5.824200195E+03
 1.343778530E+03	 5.844799805E+03
 1.344313962E+03	 5.847200195E+03
 1.344849338E+03	 5.836399902E+03
 1.345384659E+03	 5.812600098E+03
 1.345919923E+03	 5.836200195E+03
 1.346455133E+03	 5.815799805E+03
 1.346990286E+03	 5.795200195E+03
 1.347525384E+03	 5.829399902E+03
 1.348060426E+03	 5.741600098E+03
 1.348595412E+03	 5.792200195E+03
 1.349130343E+03	 5.793000000E+03
 1.349665218E+03	 5.845000000E+03
 1.350200037E+03	 5.762200195E+03
 1.350734801E+03	 5.809600098E+03
 1.351269509E+03	 5.773000000E+03
 1.351804162E+03	 5.844600098E+03
 1.352338758E+03	 5.758000000E+03
 1.352873300E+03	 5.754000000E+03
 1.353407785E+03	 5.763600098E+03
 1.353942215E+03	 5.760399902E+03
 1.354476589E+03	 5.781399902E+03
 1.355010908E+03	 5.763600098E+03
 1.355545171E+03	 5.762200195E+03
 1.356079379E+03	 5.764000000E+03
 1.356613530E+03	 5.743600098E+03
 1.357147627E+03	 5.762600098E+03
 1.357681667E+03	 5.730600098E+03
 1.358215652E+03	 5.731399902E+03
 1.358749582E+03	 5.789000000E+03
 1.359283456E+03	 5.713399902E+03
 1.359817274E+03	 5.743799805E+03
 1.360351037E+03	 5.718399902E+03
 1.360884744E+03	 5.761200195E+03
 1.361418395E+03	 5.647799805E+03
 1.361951991E+03	 5.705600098E+03
 1.362485531E+03	 5.672600098E+03
 1.363019016E+03	 5.689600098E+03
 1.363552445E+03	 5.650200195E+03
 1.364085819E+03	 5.726799805E+03
 1.364619137E+03	 5.701799805E+03
 1.365152400E+03	 5.689200195E+03
 1.365685607E+03	 5.696399902E+03
 1.366218758E+03	 5.666600098E+03
 1.366751854E+03	 5.714399902E+03
 1.367284894E+03	 5.661000000E+03
 1.367817879E+03	 5.722399902E+03
 1.368350808E+03	 5.628799805E+03
 1.368883682E+03	 5.680399902E+03
 1.369416500E+03	 5.634799805E+03
 1.369949263E+03	 5.655600098E+03
 1.370481970E+03	 5.655399902E+03
 1.371014622E+03	 5.693799805E+03
 1.371547218E+03	 5.627799805E+03
 1.372079758E+03	 5.666799805E+03
 1.372612244E+03	 5.666000000E+03
 1.373144673E+03	 5.621600098E+03
 1.373677047E+03	 5.603600098E+03
 1.374209366E+03	 5.607600098E+03
 1.374741629E+03	 5.595399902E+03
 1.375273836E+03	 5.616399902E+03
 1.375805989E+03	 5.605600098E+03
 1.376338085E+03	 5.609399902E+03
 1.376870126E+03	 5.652799805E+03
 1.377402112E+03	 5.597399902E+03
 1.377934042E+03	 5.629600098E+03
 1.378465917E+03	 5.573399902E+03
 1.378997736E+03	 5.613000000E+03
 1.379529500E+03	 5.563399902E+03
 1.380061208E+03	 5.624600098E+03
 1.380592861E+03	 5.573399902E+03
 1.381124459E+03	 5.604799805E+03
 1.381656000E+03	 5.571200195E+03
 1.382187487E+03	 5.583200195E+03
 1.382718918E+03	 5.593600098E+03
 1.383250294E+03	 5.559799805E+03
 1.383781614E+03	 5.588399902E+03
 1.384312879E+03	 5.544799805E+03
 1.384844088E+03	 5.560799805E+03
 1.385375242E+03	 5.541600098E+03
 1.385906340E+03	 5.557000000E+03
 1.386437383E+03	 5.553600098E+03
 1.386968371E+03	 5.602600098E+03
 1.387499303E+03	 5.577799805E+03
 1.388030180E+03	 5.653799805E+03
 1.388561001E+03	 5.867000000E+03
 1.389091767E+03	 6.267799805E+03
 1.389622478E+03	 5.714399902E+03
 1.390153133E+03	 5.579000000E+03
 1.390683733E+03	 5.540799805E+03
 1.391214277E+03	 5.545200195E+03
 1.391744766E+03	 5.543000000E+03
 1.392275200E+03	 5.520600098E+03
 1.392805578E+03	 5.544000000E+03
 1.393335901E+03	 5.482600098E+03
 1.393866168E+03	 5.544399902E+03
 1.394396381E+03	 5.483200195E+03
 1.394926537E+03	 5.543600098E+03
 1.395456639E+03	 5.460799805E+03
 1.395986685E+03	 5.515600098E+03
 1.396516675E+03	 5.494799805E+03
 1.397046611E+03	 5.551200195E+03
 1.397576491E+03	 5.476000000E+03
 1.398106315E+03	 5.547200195E+03
 1.398636084E+03	 5.532399902E+03
 1.399165798E+03	 5.504399902E+03
 1.399695457E+03	 5.512399902E+03
 1.400225060E+03	 5.480600098E+03
 1.400754608E+03	 5.469000000E+03
 1.401284101E+03	 5.491000000E+03
 1.401813538E+03	 5.503000000E+03
 1.402342920E+03	 5.470399902E+03
 1.402872247E+03	 5.543600098E+03
 1.403401518E+03	 5.445000000E+03
 1.403930734E+03	 5.504399902E+03
 1.404459895E+03	 5.443799805E+03
 1.404989000E+03	 5.489000000E+03
 1.405518050E+03	 5.413200195E+03
 1.406047045E+03	 5.445000000E+03
 1.406575984E+03	 5.392799805E+03
 1.407104869E+03	 5.431600098E+03
 1.407633697E+03	 5.453399902E+03
 1.408162471E+03	 5.455000000E+03
 1.408691189E+03	 5.466200195E+03
 1.409219852E+03	 5.441000000E+03
 1.409748460E+03	 5.490399902E+03
 1.410277013E+03	 5.504399902E+03
 1.410805510E+03	 5.486399902E+03
 1.411333952E+03	 5.429600098E+03
 1.411862339E+03	 5.462600098E+03
 1.412390670E+03	 5.434799805E+03
 1.412918946E+03	 5.427000000E+03
 1.413447167E+03	 5.402000000E+03
 1.413975333E+03	 5.430600098E+03
 1.414503444E+03	 5.385600098E+03
 1.415031499E+03	 5.413799805E+03
 1.415559499E+03	 5.399799805E+03
 1.416087444E+03	 5.389799805E+03
 1.416615333E+03	 5.379799805E+03
 1.417143167E+03	 5.395200195E+03
 1.417670947E+03	 5.360399902E+03
 1.418198670E+03	 5.381399902E+03
 1.418726339E+03	 5.401200195E+03
 1.419253952E+03	 5.406399902E+03
 1.419781511E+03	 5.406000000E+03
 1.420309014E+03	 5.381799805E+03
 1.420836461E+03	 5.373200195E+03
 1.421363854E+03	 5.361000000E+03
 1.421891191E+03	 5.366799805E+03
 1.422418474E+03	 5.351799805E+03
 1.422945701E+03	 5.380600098E+03
 1.423472872E+03	 5.361600098E+03
 1.423999989E+03	 5.362399902E+03
 1.424527050E+03	 5.367600098E+03
 1.425054057E+03	 5.377200195E+03
 1.425581008E+03	 5.365799805E+03
 1.426107904E+03	 5.376799805E+03
 1.426634745E+03	 5.350000000E+03
 1.427161530E+03	 5.378799805E+03
 1.427688261E+03	 5.361000000E+03
 1.428214936E+03	 5.340399902E+03
 1.428741556E+03	 5.329399902E+03
 1.429268121E+03	 5.319399902E+03
 1.429794631E+03	 5.345200195E+03
 1.430321085E+03	 5.346799805E+03
 1.430847485E+03	 5.369399902E+03
 1.431373829E+03	 5.333399902E+03
 1.431900118E+03	 5.273600098E+03
 1.432426353E+03	 5.333799805E+03
 1.432952532E+03	 5.307600098E+03
 1.433478655E+03	 5.291799805E+03
 1.434004724E+03	 5.316600098E+03
 1.434530738E+03	 5.295600098E+03
 1.435056696E+03	 5.315200195E+03
 1.435582600E+03	 5.316200195E+03
 1.436108448E+03	 5.268399902E+03
 1.436634241E+03	 5.276799805E+03
 1.437159979E+03	 5.239200195E+03
 1.437685662E+03	 5.273399902E+03
 1.438211290E+03	 5.255399902E+03
 1.438736863E+03	 5.287000000E+03
 1.439262381E+03	 5.260799805E+03
 1.439787843E+03	 5.276799805E+03
 1.440313251E+03	 5.288799805E+03
 1.440838603E+03	 5.263799805E+03
 1.441363900E+03	 5.251799805E+03
 1.441889143E+03	 5.263000000E+03
 1.442414330E+03	 5.262399902E+03
 1.442939462E+03	 5.276000000E+03
 1.443464539E+03	 5.244399902E+03
 1.443989561E+03	 5.272399902E+03
 1.444514528E+03	 5.243799805E+03
 1.445039440E+03	 5.226799805E+03
 1.445564297E+03	 5.247399902E+03
 1.446089099E+03	 5.250000000E+03
 1.446613846E+03	 5.262000000E+03
 1.447138537E+03	 5.265399902E+03
 1.447663174E+03	 5.285799805E+03
 1.448187756E+03	 5.229600098E+03
 1.448712282E+03	 5.222600098E+03
 1.449236754E+03	 5.243600098E+03
 1.449761171E+03	 5.187600098E+03
 1.450285532E+03	 5.207399902E+03
 1.450809839E+03	 5.214600098E+03
 1.451334090E+03	 5.195600098E+03
 1.451858287E+03	 5.171000000E+03
 1.452382428E+03	 5.189799805E+03
 1.452906515E+03	 5.167000000E+03
 1.453430546E+03	 5.174600098E+03
 1.453954523E+03	 5.177600098E+03
 1.454478444E+03	 5.211600098E+03
 1.455002311E+03	 5.189799805E+03
 1.455526123E+03	 5.178600098E+03
 1.456049879E+03	 5.177600098E+03
 1.456573581E+03	 5.164600098E+03
 1.457097227E+03	 5.159799805E+03
 1.457620819E+03	 5.167799805E+03
 1.458144356E+03	 5.179600098E+03
 1.458667837E+03	 5.144600098E+03
 1.459191264E+03	 5.121000000E+03
 1.459714636E+03	 5.186600098E+03
 1.460237952E+03	 5.140600098E+03
 1.460761214E+03	 5.162399902E+03
 1.461284421E+03	 5.132600098E+03
 1.461807573E+03	 5.121399902E+03
 1.462330670E+03	 5.126799805E+03
 1.462853712E+03	 5.115399902E+03
 1.463376699E+03	 5.164000000E+03
 1.463899632E+03	 5.125000000E+03
 1.464422509E+03	 5.136600098E+03
 1.464945331E+03	 5.101799805E+03
 1.465468099E+03	 5.144399902E+03
 1.465990811E+03	 5.136000000E+03
 1.466513469E+03	 5.041799805E+03
 1.467036071E+03	 5.109200195E+03
 1.467558619E+03	 5.102600098E+03
 1.468081112E+03	 5.133399902E+03
 1.468603550E+03	 5.147600098E+03
 1.469125933E+03	 5.144600098E+03
 1.469648261E+03	 5.088200195E+03
 1.470170534E+03	 5.104399902E+03
 1.470692752E+03	 5.073799805E+03
 1.471214916E+03	 5.053000000E+03
 1.471737024E+03	 5.039200195E+03
 1.472259078E+03	 5.073000000E+03
 1.472781077E+03	 5.069200195E+03
 1.473303021E+03	 5.055200195E+03
 1.473824910E+03	 5.085600098E+03
 1.474346744E+03	 5.073000000E+03
 1.474868523E+03	 5.033200195E+03
 1.475390248E+03	 5.065799805E+03
 1.475911917E+03	 5.011000000E+03
 1.476433532E+03	 5.036200195E+03
 1.476955092E+03	 5.034600098E+03
 1.477476597E+03	 5.049200195E+03
 1.477998047E+03	 5.016600098E+03
 1.478519442E+03	 5.027000000E+03
 1.479040783E+03	 5.050399902E+03
 1.479562068E+03	 5.012399902E+03
 1.480083299E+03	 5.029799805E+03
 1.480604475E+03	 5.053200195E+03
 1.481125596E+03	 4.982799805E+03
 1.481646663E+03	 5.011200195E+03
 1.482167674E+03	 5.014399902E+03
 1.482688631E+03	 4.995399902E+03
 1.483209533E+03	 5.005600098E+03
 1.483730380E+03	 5.007600098E+03
 1.484251172E+03	 5.004399902E+03
 1.484771909E+03	 5.004000000E+03
 1.485292592E+03	 4.996000000E+03
 1.485813220E+03	 4.991200195E+03
 1.486333793E+03	 4.995399902E+03
 1.486854311E+03	 4.991200195E+03
 1.487374775E+03	 4.959200195E+03
 1.487895183E+03	 4.984799805E+03
 1.488415537E+03	 4.961200195E+03
 1.488935836E+03	 4.999799805E+03
 1.489456081E+03	 4.940000000E+03
 1.489976270E+03	 4.972000000E+03
 1.490496405E+03	 4.977200195E+03
 1.491016485E+03	 4.909000000E+03
 1.491536511E+03	 4.961600098E+03
 1.492056481E+03	 4.927600098E+03
 1.492576397E+03	 4.945000000E+03
 1.493096258E+03	 4.937799805E+03
 1.493616064E+03	 4.968000000E+03
 1.494135816E+03	 4.942399902E+03
 1.494655513E+03	 4.968000000E+03
 1.495175155E+03	 4.938000000E+03
 1.495694742E+03	 4.947399902E+03
 1.496214274E+03	 4.880600098E+03
 1.496733752E+03	 4.931000000E+03
 1.497253175E+03	 4.904399902E+03
 1.497772544E+03	 4.898000000E+03
 1.498291858E+03	 4.932399902E+03
 1.498811116E+03	 4.931600098E+03
 1.499330321E+03	 4.909399902E+03
 1.499849470E+03	 4.893799805E+03
 1.500368565E+03	 4.877399902E+03
 1.500887605E+03	 4.883799805E+03
 1.501406591E+03	 4.905799805E+03
 1.501925521E+03	 4.868000000E+03
 1.502444397E+03	 4.863600098E+03
 1.502963219E+03	 4.914000000E+03
 1.503481985E+03	 4.894799805E+03
 1.504000697E+03	 4.882200195E+03
 1.504519355E+03	 4.883600098E+03
 1.505037957E+03	 4.845799805E+03
 1.505556505E+03	 4.848000000E+03
 1.506074999E+03	 4.877200195E+03
 1.506593437E+03	 4.854200195E+03
 1.507111821E+03	 4.861799805E+03
 1.507630150E+03	 4.840799805E+03
 1.508148425E+03	 4.875799805E+03
 1.508666645E+03	 4.857000000E+03
 1.509184810E+03	 4.871000000E+03
 1.509702921E+03	 4.842000000E+03
 1.510220977E+03	 4.856200195E+03
 1.510738979E+03	 4.820399902E+03
 1.511256925E+03	 4.809799805E+03
 1.511774817E+03	 4.828200195E+03
 1.512292655E+03	 4.877000000E+03
 1.512810438E+03	 4.839000000E+03
 1.513328166E+03	 4.818000000E+03
 1.513845840E+03	 4.813200195E+03
 1.514363459E+03	 4.820600098E+03
 1.514881023E+03	 4.830600098E+03
 1.515398533E+03	 4.812000000E+03
 1.515915988E+03	 4.852799805E+03
 1.516433389E+03	 4.826000000E+03
 1.516950734E+03	 4.809399902E+03
 1.517468026E+03	 4.795600098E+03
 1.517985263E+03	 4.797399902E+03
 1.518502445E+03	 4.811600098E+03
 1.519019572E+03	 4.837000000E+03
 1.519536645E+03	 4.803600098E+03
 1.520053664E+03	 4.784200195E+03
 1.520570628E+03	 4.837200195E+03
 1.521087537E+03	 4.784000000E+03
 1.521604392E+03	 4.798799805E+03
 1.522121192E+03	 4.810399902E+03
 1.522637937E+03	 4.816399902E+03
 1.523154628E+03	 4.806600098E+03
 1.523671265E+03	 4.806399902E+03
 1.524187847E+03	 4.782000000E+03
 1.524704374E+03	 4.766799805E+03
 1.525220847E+03	 4.771200195E+03
 1.525737265E+03	 4.751200195E+03
 1.526253629E+03	 4.813799805E+03
 1.526769938E+03	 4.799000000E+03
 1.527286192E+03	 4.802399902E+03
 1.527802392E+03	 4.764200195E+03
 1.528318538E+03	 4.808799805E+03
 1.528834629E+03	 4.775200195E+03
 1.529350666E+03	 4.771799805E+03
 1.529866648E+03	 4.774600098E+03
 1.530382575E+03	 4.791600098E+03
 1.530898448E+03	 4.718799805E+03
 1.531414266E+03	 4.766000000E+03
 1.531930030E+03	 4.819200195E+03
 1.532445740E+03	 4.795600098E+03
 1.532961395E+03	 4.837799805E+03
 1.533476995E+03	 4.763000000E+03
 1.533992541E+03	 4.785600098E+03
 1.534508033E+03	 4.769000000E+03
 1.535023470E+03	 4.747399902E+03
 1.535538852E+03	 4.755000000E+03
 1.536054180E+03	 4.723200195E+03
 1.536569454E+03	 4.780000000E+03
 1.537084673E+03	 4.739399902E+03
 1.537599837E+03	 4.758799805E+03
 1.538114947E+03	 4.709200195E+03
 1.538630003E+03	 4.780399902E+03
 1.539145004E+03	 4.729799805E+03
 1.539659951E+03	 4.749799805E+03
 1.540174843E+03	 4.736399902E+03
 1.540689681E+03	 4.725200195E+03
 1.541204465E+03	 4.739600098E+03
 1.541719194E+03	 4.756399902E+03
 1.542233868E+03	 4.746600098E+03
 1.542748488E+03	 4.738799805E+03
 1.543263054E+03	 4.756000000E+03
 1.543777565E+03	 4.759799805E+03
 1.544292022E+03	 4.746600098E+03
 1.544806424E+03	 4.720200195E+03
 1.545320772E+03	 4.764799805E+03
 1.545835066E+03	 4.738600098E+03
 1.546349305E+03	 4.750000000E+03
 1.546863489E+03	 4.748600098E+03
 1.547377620E+03	 4.704399902E+03
 1.547891696E+03	 4.738600098E+03
 1.548405717E+03	 4.689799805E+03
 1.548919684E+03	 4.714200195E+03
 1.549433597E+03	 4.712600098E+03
 1.549947455E+03	 4.711399902E+03
 1.550461259E+03	 4.718399902E+03
 1.550975009E+03	 4.735799805E+03
 1.551488704E+03	 4.695399902E+03
 1.552002345E+03	 4.685799805E+03
 1.552515931E+03	 4.721200195E+03
 1.553029463E+03	 4.720200195E+03
 1.553542941E+03	 4.734000000E+03
 1.554056364E+03	 4.705799805E+03
 1.554569733E+03	 4.757000000E+03
 1.555083048E+03	 4.697600098E+03
 1.555596308E+03	 4.720799805E+03
 1.556109514E+03	 4.661799805E+03
 1.556622665E+03	 4.670399902E+03
 1.557135762E+03	 4.673799805E+03
 1.557648805E+03	 4.724600098E+03
 1.558161794E+03	 4.692399902E+03
 1.558674728E+03	 4.712000000E+03
 1.559187608E+03	 4.699200195E+03
 1.559700433E+03	 4.669799805E+03
 1.560213205E+03	 4.695200195E+03
 1.560725921E+03	 4.663799805E+03
 1.561238584E+03	 4.649600098E+03
 1.561751192E+03	 4.684600098E+03
 1.562263746E+03	 4.677399902E+03
 1.562776246E+03	 4.669399902E+03
 1.563288691E+03	 4.712399902E+03
 1.563801082E+03	 4.657799805E+03
 1.564313419E+03	 4.689200195E+03
 1.564825701E+03	 4.634000000E+03
 1.565337929E+03	 4.645600098E+03
 1.565850103E+03	 4.676200195E+03
 1.566362223E+03	 4.696399902E+03
 1.566874288E+03	 4.702399902E+03
 1.567386299E+03	 4.654200195E+03
 1.567898256E+03	 4.663399902E+03
 1.568410158E+03	 4.651200195E+03
 1.568922007E+03	 4.641600098E+03
 1.569433800E+03	 4.636000000E+03
 1.569945540E+03	 4.630799805E+03
 1.570457226E+03	 4.637600098E+03
 1.570968857E+03	 4.646000000E+03
 1.571480434E+03	 4.677000000E+03
 1.571991956E+03	 4.625600098E+03
 1.572503425E+03	 4.636000000E+03
 1.573014839E+03	 4.629399902E+03
 1.573526199E+03	 4.670200195E+03
 1.574037505E+03	 4.621399902E+03
 1.574548756E+03	 4.612399902E+03
 1.575059953E+03	 4.671399902E+03
 1.575571096E+03	 4.607200195E+03
 1.576082185E+03	 4.671600098E+03
 1.576593220E+03	 4.624600098E+03
 1.577104200E+03	 4.660399902E+03
 1.577615126E+03	 4.607200195E+03
 1.578125998E+03	 4.639200195E+03
 1.578636816E+03	 4.601000000E+03
 1.579147580E+03	 4.625000000E+03
 1.579658289E+03	 4.614000000E+03
 1.580168944E+03	 4.615399902E+03
 1.580679545E+03	 4.612000000E+03
 1.581190092E+03	 4.557200195E+03
 1.581700585E+03	 4.593399902E+03
 1.582211023E+03	 4.551000000E+03
 1.582721407E+03	 4.624799805E+03
 1.583231737E+03	 4.577200195E+03
 1.583742013E+03	 4.592799805E+03
 1.584252235E+03	 4.566799805E+03
 1.584762403E+03	 4.590200195E+03
 1.585272516E+03	 4.599799805E+03
 1.585782575E+03	 4.578000000E+03
 1.586292581E+03	 4.580799805E+03
 1.586802532E+03	 4.551799805E+03
 1.587312428E+03	 4.610000000E+03
 1.587822271E+03	 4.584600098E+03
 1.588332060E+03	 4.624799805E+03
 1.588841794E+03	 4.545399902E+03
 1.589351474E+03	 4.576799805E+03
 1.589861100E+03	 4.567399902E+03
 1.590370672E+03	 4.548799805E+03
 1.590880190E+03	 4.560600098E+03
 1.591389654E+03	 4.538600098E+03
 1.591899064E+03	 4.570600098E+03
 1.592408419E+03	 4.572000000E+03
