1043.018714	3369.399902
1043.585098	3376.0
1044.151424	3379.399902
1044.717692	3327.0
1045.283903	3354.399902
1045.850056	3346.600098
1046.416151	3365.199951
1046.982188	3331.199951
1047.548167	3345.600098
1048.114089	3329.800049
1048.679953	3352.600098
1049.24576	3342.0
1049.811509	3345.199951
1050.3772	3317.199951
1050.942833	3363.399902
1051.508408	3341.600098
1052.073926	3335.199951
1052.639387	3303.399902
1053.204789	3315.800049
1053.770134	3312.600098
1054.335421	3326.0
1054.900651	3318.199951
1055.465823	3324.199951
1056.030937	3319.399902
1056.595993	3326.600098
1057.160992	3283.199951
1057.725934	3321.800049
1058.290817	3301.800049
1058.855643	3318.0
1059.420411	3301.600098
1059.985122	3304.0
1060.549775	3273.0
1061.114371	3295.0
1061.678908	3279.399902
1062.243389	3277.399902
1062.807811	3285.199951
1063.372176	3285.800049
1063.936483	3263.0
1064.500733	3288.199951
1065.064925	3253.399902
1065.62906	3294.800049
1066.193137	3284.399902
1066.757156	3307.600098
1067.321118	3276.399902
1067.885022	3294.800049
1068.448869	3276.600098
1069.012658	3262.800049
1069.57639	3249.399902
1070.140063	3264.199951
1070.70368	3254.600098
1071.267239	3271.399902
1071.83074	3265.800049
1072.394184	3245.399902
1072.95757	3265.399902
1073.520899	3260.600098
1074.08417	3265.800049
1074.647383	3246.399902
1075.21054	3253.199951
1075.773638	3237.600098
1076.336679	3239.399902
1076.899663	3243.0
1077.462589	3253.0
1078.025457	3221.399902
1078.588268	3235.800049
1079.151022	3226.600098
1079.713718	3252.800049
1080.276356	3224.600098
1080.838937	3219.600098
1081.401461	3215.399902
1081.963927	3239.0
1082.526336	3185.199951
1083.088687	3224.199951
1083.650981	3201.399902
1084.213217	3182.199951
1084.775396	3202.800049
1085.337517	3204.199951
1085.899581	3205.800049
1086.461587	3208.199951
1087.023536	3193.0
1087.585428	3194.600098
1088.147262	3194.199951
1088.709039	3179.199951
1089.270758	3201.0
1089.83242	3162.800049
1090.394024	3172.0
1090.955571	3180.399902
1091.517061	3180.600098
1092.078493	3137.199951
1092.639868	3154.199951
1093.201185	3139.0
1093.762445	3148.600098
1094.323648	3138.399902
1094.884793	3132.800049
1095.445881	3136.199951
1096.006911	3130.600098
1096.567884	3140.0
1097.1288	3137.600098
1097.689659	3164.399902
1098.25046	3134.800049
1098.811203	3122.199951
1099.37189	3133.800049
1099.932518	3127.199951
1100.49309	3143.0
1101.053604	3111.199951
1101.614061	3089.800049
1102.174461	3098.600098
1102.734803	3082.600098
1103.295088	3107.199951
1103.855316	3115.800049
1104.415486	3105.600098
1104.975599	3092.0
1105.535655	3062.800049
1106.095653	3064.600098
1106.655594	3078.600098
1107.215478	3089.399902
1107.775305	3078.600098
1108.335074	3056.399902
1108.894786	3048.800049
1109.45444	3085.0
1110.014038	3078.199951
1110.573578	3075.600098
1111.133061	3080.399902
1111.692486	3067.399902
1112.251854	3035.0
1112.811165	3061.0
1113.370419	3062.0
1113.929616	3071.600098
1114.488755	3057.399902
1115.047837	3066.600098
1115.606862	3050.800049
1116.16583	3076.399902
1116.72474	3044.199951
1117.283593	3069.399902
1117.842389	3040.199951
1118.401128	3045.800049
1118.959809	3020.399902
1119.518433	3040.399902
1120.077	3043.399902
1120.63551	3020.600098
1121.193963	3027.600098
1121.752358	3064.0
1122.310697	3054.800049
1122.868978	3054.399902
1123.427202	2986.0
1123.985368	3003.0
1124.543478	3014.199951
1125.10153	3029.399902
1125.659526	3007.199951
1126.217464	3022.199951
1126.775345	3006.0
1127.333168	3017.199951
1127.890935	2991.0
1128.448644	3003.600098
1129.006297	3007.0
1129.563892	3001.600098
1130.12143	3006.800049
1130.678911	3009.800049
1131.236335	3009.399902
1131.793701	3012.399902
1132.351011	2994.199951
1132.908263	2975.0
1133.465458	3004.0
1134.022597	3010.0
1134.579678	3003.0
1135.136702	3005.199951
1135.693669	2971.199951
1136.250578	2985.600098
1136.807431	2998.0
1137.364227	3029.399902
1137.920965	3008.0
1138.477647	3010.399902
1139.034271	2974.600098
1139.590839	2998.0
1140.147349	2982.0
1140.703802	2996.0
1141.260198	2966.600098
1141.816537	3006.199951
1142.37282	2981.800049
1142.929045	2991.800049
1143.485213	2970.199951
1144.041323	2969.0
1144.597377	2980.800049
1145.153374	2986.399902
1145.709314	2982.199951
1146.265197	3003.399902
1146.821023	2998.199951
1147.376792	3004.399902
1147.932503	2976.0
1148.488158	2987.800049
1149.043756	2976.600098
1149.599297	2980.399902
1150.154781	2988.199951
1150.710207	2979.800049
1151.265577	2973.399902
1151.82089	2995.399902
1152.376146	2977.199951
1152.931345	2962.0
1153.486487	2986.600098
1154.041572	2978.399902
1154.5966	2959.199951
1155.151571	2976.199951
1155.706485	2949.800049
1156.261342	2972.199951
1156.816142	2971.0
1157.370885	2934.199951
1157.925572	2961.600098
1158.480201	2958.199951
1159.034774	2961.199951
1159.589289	2958.800049
1160.143748	2977.199951
1160.698149	2959.0
1161.252494	2953.800049
1161.806782	2966.0
1162.361013	2954.0
1162.915187	2948.600098
1163.469304	2967.199951
1164.023364	2975.600098
1164.577368	2953.199951
1165.131314	2940.399902
1165.685204	2944.600098
1166.239036	2932.199951
1166.792812	2935.399902
1167.346531	2960.0
1167.900193	2936.199951
1168.453798	2940.399902
1169.007347	2943.600098
1169.560838	2939.199951
1170.114273	2924.199951
1170.66765	2932.199951
1171.220971	2949.600098
1171.774235	2926.800049
1172.327443	2951.199951
1172.880593	2938.399902
1173.433687	2935.800049
1173.986723	2920.399902
1174.539703	2927.399902
1175.092626	2909.0
1175.645493	2937.600098
1176.198302	2942.800049
1176.751055	2926.800049
1177.303751	2929.0
1177.85639	2936.600098
1178.408972	2915.800049
1178.961498	2917.800049
1179.513966	2896.399902
1180.066378	2917.800049
1180.618733	2911.399902
1181.171032	2941.600098
1181.723273	2897.0
1182.275458	2905.399902
1182.827586	2875.600098
1183.379657	2903.199951
1183.931672	2893.199951
1184.48363	2936.800049
1185.035531	2922.600098
1185.587375	2902.0
1186.139162	2900.600098
1186.690893	2868.800049
1187.242567	2880.399902
1187.794184	2903.0
1188.345745	2890.199951
1188.897249	2887.399902
1189.448696	2876.0
1190.000086	2867.800049
1190.55142	2894.800049
1191.102697	2879.0
1191.653918	2894.399902
1192.205081	2883.0
1192.756188	2846.399902
1193.307238	2902.600098
1193.858232	2877.399902
1194.409169	2869.600098
1194.960049	2876.0
1195.510872	2870.800049
1196.061639	2883.600098
1196.612349	2872.0
1197.163003	2874.0
1197.713599	2885.399902
1198.264139	2874.0
1198.814623	2836.600098
1199.36505	2864.199951
1199.91542	2841.399902
1200.465734	2892.0
1201.01599	2857.199951
1201.566191	2846.199951
1202.116334	2866.0
1202.666421	2844.800049
1203.216452	2853.800049
1203.766425	2829.800049
1204.316343	2852.800049
1204.866203	2837.600098
1205.416007	2821.600098
1205.965754	2829.0
1206.515445	2853.399902
1207.065079	2838.399902
1207.614657	2824.0
1208.164177	2818.199951
1208.713642	2835.0
1209.26305	2816.0
1209.812401	2823.0
1210.361695	2807.199951
1210.910933	2802.199951
1211.460115	2815.399902
1212.00924	2817.600098
1212.558308	2821.399902
1213.10732	2824.399902
1213.656275	2831.600098
1214.205174	2801.800049
1214.754016	2801.600098
1215.302801	2815.199951
1215.85153	2818.199951
1216.400203	2813.199951
1216.948819	2829.399902
1217.497378	2805.199951
1218.045881	2789.600098
1218.594327	2801.199951
1219.142717	2814.199951
1219.691051	2798.0
1220.239327	2807.199951
1220.787548	2781.600098
1221.335712	2797.800049
1221.883819	2790.800049
1222.43187	2803.600098
1222.979864	2792.600098
1223.527802	2818.199951
1224.075683	2770.600098
1224.623508	2807.199951
1225.171277	2791.800049
1225.718989	2761.800049
1226.266644	2766.600098
1226.814243	2791.600098
1227.361786	2799.199951
1227.909272	2771.399902
1228.456702	2774.600098
1229.004075	2789.800049
1229.551392	2786.199951
1230.098652	2779.600098
1230.645856	2771.0
1231.193003	2781.399902
1231.740094	2782.0
1232.287129	2745.399902
1232.834107	2750.0
1233.381029	2778.199951
1233.927894	2767.399902
1234.474703	2754.600098
1235.021455	2743.600098
1235.568151	2757.600098
1236.114791	2761.800049
1236.661374	2757.600098
1237.207901	2763.399902
1237.754372	2768.800049
1238.300786	2763.0
1238.847144	2753.800049
1239.393445	2758.0
1239.93969	2770.0
1240.485879	2763.399902
1241.032011	2751.600098
1241.578087	2759.600098
1242.124106	2736.399902
1242.67007	2756.600098
1243.215976	2739.199951
1243.761827	2734.600098
1244.307621	2731.199951
1244.853359	2737.199951
1245.39904	2744.0
1245.944665	2737.800049
1246.490234	2723.399902
1247.035746	2763.800049
1247.581203	2738.0
1248.126602	2737.199951
1248.671946	2748.600098
1249.217233	2734.0
1249.762464	2730.800049
1250.307638	2728.0
1250.852757	2711.399902
1251.397819	2729.0
1251.942824	2727.800049
1252.487774	2726.0
1253.032667	2735.0
1253.577503	2707.800049
1254.122284	2728.199951
1254.667008	2724.399902
1255.211676	2748.0
1255.756288	2712.199951
1256.300843	2721.600098
1256.845342	2724.800049
1257.389785	2710.600098
1257.934172	2703.199951
1258.478502	2721.199951
1259.022776	2739.600098
1259.566994	2723.0
1260.111156	2722.600098
1260.655261	2712.399902
1261.199311	2703.199951
1261.743304	2691.600098
1262.28724	2696.399902
1262.831121	2731.199951
1263.374945	2704.600098
1263.918713	2738.399902
1264.462425	2753.0
1265.006081	2787.0
1265.54968	2808.800049
1266.093223	2740.800049
1266.636711	2710.800049
1267.180141	2708.600098
1267.723516	2707.0
1268.266835	2698.600098
1268.810097	2699.0
1269.353303	2672.0
1269.896453	2679.600098
1270.439547	2694.199951
1270.982584	2681.199951
1271.525566	2689.399902
1272.068491	2692.600098
1272.61136	2697.800049
1273.154173	2702.800049
1273.69693	2682.0
1274.239631	2679.600098
1274.782275	2682.600098
1275.324864	2677.800049
1275.867396	2682.399902
1276.409872	2683.800049
1276.952292	2678.600098
1277.494656	2690.399902
1278.036964	2689.800049
1278.579215	2680.199951
1279.121411	2643.399902
1279.66355	2687.199951
1280.205634	2667.399902
1280.747661	2677.800049
1281.289632	2686.600098
1281.831547	2673.0
1282.373406	2715.399902
1282.915209	2696.199951
1283.456955	2699.199951
1283.998646	2795.199951
1284.540281	3012.199951
1285.081859	3666.399902
1285.623381	4043.199951
1286.164848	3177.199951
1286.706258	2795.0
1287.247612	2708.800049
1287.788911	2680.600098
1288.330153	2653.600098
1288.871339	2668.0
1289.412469	2665.0
1289.953543	2660.800049
1290.494561	2648.0
1291.035523	2639.0
1291.576428	2607.399902
1292.117278	2641.399902
1292.658072	2632.800049
1293.19881	2639.600098
1293.739492	2632.600098
1294.280118	2634.800049
1294.820687	2642.399902
1295.361201	2629.800049
1295.901659	2651.0
1296.442061	2622.600098
1296.982406	2622.800049
1297.522696	2614.800049
1298.06293	2654.0
1298.603108	2616.800049
1299.143229	2630.399902
1299.683295	2596.199951
1300.223305	2601.199951
1300.763259	2596.0
1301.303157	2602.0
1301.842999	2619.600098
1302.382785	2608.800049
1302.922515	2616.399902
1303.462189	2611.399902
1304.001807	2604.0
1304.541369	2618.199951
1305.080875	2618.800049
1305.620326	2602.199951
1306.15972	2592.399902
1306.699058	2601.600098
1307.238341	2610.0
1307.777567	2604.199951
1308.316738	2594.399902
1308.855853	2595.0
1309.394912	2609.199951
1309.933915	2587.0
1310.472862	2600.800049
1311.011753	2598.600098
1311.550588	2609.199951
1312.089367	2575.199951
1312.62809	2590.800049
1313.166758	2594.600098
1313.70537	2600.399902
1314.243925	2590.199951
1314.782425	2584.399902
1315.320869	2574.600098
1315.859257	2591.0
1316.397589	2557.600098
1316.935866	2578.399902
1317.474086	2582.600098
1318.012251	2567.199951
1318.55036	2584.199951
1319.088413	2585.0
1319.62641	2593.399902
1320.164351	2566.399902
1320.702236	2562.800049
1321.240066	2559.399902
1321.777839	2578.600098
1322.315557	2563.0
1322.853219	2562.0
1323.390826	2567.800049
1323.928376	2551.399902
1324.465871	2576.199951
1325.003309	2572.600098
1325.540692	2558.399902
1326.07802	2544.800049
1326.615291	2564.399902
1327.152506	2554.600098
1327.689666	2548.600098
1328.22677	2551.399902
1328.763818	2549.800049
1329.300811	2564.600098
1329.837747	2540.0
1330.374628	2539.800049
1330.911453	2548.800049
1331.448222	2522.600098
1331.984936	2537.600098
1332.521594	2536.0
1333.058196	2521.0
1333.594742	2542.399902
1334.131232	2529.800049
1334.667667	2535.399902
1335.204046	2544.199951
1335.740369	2530.600098
1336.276637	2536.600098
1336.812848	2528.800049
1337.349004	2515.199951
1337.885105	2527.800049
1338.421149	2513.600098
1338.957138	2538.600098
1339.493071	2540.600098
1340.028949	2509.800049
1340.56477	2515.199951
1341.100536	2517.600098
1341.636246	2523.600098
1342.171901	2514.800049
1342.7075	2541.399902
1343.243043	2496.800049
1343.77853	2520.0
1344.313962	2520.399902
1344.849338	2525.600098
1345.384659	2520.0
1345.919923	2499.0
1346.455133	2532.800049
1346.990286	2509.399902
1347.525384	2503.800049
1348.060426	2497.199951
1348.595412	2491.0
1349.130343	2479.800049
1349.665218	2487.600098
1350.200037	2497.199951
1350.734801	2520.600098
1351.269509	2498.399902
1351.804162	2501.800049
1352.338758	2510.399902
1352.8733	2480.399902
1353.407785	2511.199951
1353.942215	2481.800049
1354.476589	2476.399902
1355.010908	2460.800049
1355.545171	2503.399902
1356.079379	2486.600098
1356.61353	2500.600098
1357.147627	2454.0
1357.681667	2486.800049
1358.215652	2476.800049
1358.749582	2495.399902
1359.283456	2472.399902
1359.817274	2470.399902
1360.351037	2460.0
1360.884744	2473.600098
1361.418395	2455.199951
1361.951991	2484.600098
1362.485531	2488.0
1363.019016	2464.800049
1363.552445	2476.399902
1364.085819	2457.600098
1364.619137	2491.399902
1365.1524	2464.600098
1365.685607	2458.800049
1366.218758	2471.600098
1366.751854	2473.800049
1367.284894	2474.399902
1367.817879	2462.0
1368.350808	2435.399902
1368.883682	2456.399902
1369.4165	2446.199951
1369.949263	2463.800049
1370.48197	2485.399902
1371.014622	2467.399902
1371.547218	2433.600098
1372.079758	2450.399902
1372.612244	2463.0
1373.144673	2463.199951
1373.677047	2452.600098
1374.209366	2447.0
1374.741629	2471.600098
1375.273836	2455.0
1375.805989	2457.199951
1376.338085	2448.800049
1376.870126	2454.800049
1377.402112	2455.800049
1377.934042	2472.800049
1378.465917	2441.399902
1378.997736	2438.800049
1379.5295	2424.0
1380.061208	2454.600098
1380.592861	2441.600098
1381.124459	2427.199951
1381.656	2423.199951
1382.187487	2443.199951
1382.718918	2440.600098
1383.250294	2449.600098
1383.781614	2436.399902
1384.312879	2435.399902
1384.844088	2481.0
1385.375242	2441.800049
1385.90634	2476.800049
1386.437383	2473.600098
1386.968371	2510.399902
1387.499303	2609.800049
1388.03018	3113.399902
1388.561001	4668.0
1389.091767	4383.0
1389.622478	2876.600098
1390.153133	2551.399902
1390.683733	2473.0
1391.214277	2446.199951
1391.744766	2448.600098
1392.2752	2439.399902
1392.805578	2427.800049
1393.335901	2409.399902
1393.866168	2421.600098
1394.396381	2421.199951
1394.926537	2421.199951
1395.456639	2419.0
1395.986685	2425.0
1396.516675	2392.800049
1397.046611	2411.199951
1397.576491	2402.800049
1398.106315	2414.800049
1398.636084	2414.600098
1399.165798	2402.600098
1399.695457	2405.399902
1400.22506	2394.0
1400.754608	2398.199951
1401.284101	2383.399902
1401.813538	2422.199951
1402.34292	2385.199951
1402.872247	2407.800049
1403.401518	2399.199951
1403.930734	2393.600098
1404.459895	2382.399902
1404.989	2424.600098
1405.51805	2396.199951
1406.047045	2385.600098
1406.575984	2389.0
1407.104869	2412.800049
1407.633697	2382.199951
1408.162471	2429.600098
1408.691189	2422.0
1409.219852	2431.800049
1409.74846	2523.199951
1410.277013	2545.399902
1410.80551	2463.199951
1411.333952	2406.0
1411.862339	2409.800049
1412.39067	2393.800049
1412.918946	2387.199951
1413.447167	2378.0
1413.975333	2398.600098
1414.503444	2372.800049
1415.031499	2399.800049
1415.559499	2377.399902
1416.087444	2382.0
1416.615333	2373.600098
1417.143167	2366.0
1417.670947	2375.600098
1418.19867	2394.399902
1418.726339	2368.399902
1419.253952	2375.600098
1419.781511	2394.800049
1420.309014	2357.600098
1420.836461	2388.399902
1421.363854	2369.800049
1421.891191	2369.600098
1422.418474	2355.600098
1422.945701	2367.800049
1423.472872	2371.199951
1423.999989	2350.600098
1424.52705	2372.0
1425.054057	2350.800049
1425.581008	2378.600098
1426.107904	2366.199951
1426.634745	2369.0
1427.16153	2342.399902
1427.688261	2361.800049
1428.214936	2380.199951
1428.741556	2331.600098
1429.268121	2344.600098
1429.794631	2367.0
1430.321085	2344.600098
1430.847485	2348.600098
1431.373829	2350.0
1431.900118	2327.399902
1432.426353	2356.399902
1432.952532	2333.0
1433.478655	2329.800049
1434.004724	2349.399902
1434.530738	2322.399902
1435.056696	2325.199951
1435.5826	2342.0
1436.108448	2322.600098
1436.634241	2334.800049
1437.159979	2330.0
1437.685662	2310.399902
1438.21129	2338.800049
1438.736863	2335.600098
1439.262381	2309.600098
1439.787843	2320.800049
1440.313251	2312.199951
1440.838603	2313.600098
1441.3639	2316.600098
1441.889143	2325.399902
1442.41433	2326.600098
1442.939462	2336.0
1443.464539	2323.399902
1443.989561	2328.199951
1444.514528	2329.199951
1445.03944	2313.399902
1445.564297	2303.399902
1446.089099	2305.399902
1446.613846	2319.399902
1447.138537	2327.600098
1447.663174	2312.399902
1448.187756	2319.600098
1448.712282	2310.800049
1449.236754	2310.600098
1449.761171	2299.199951
1450.285532	2303.0
1450.809839	2312.600098
1451.33409	2318.0
1451.858287	2293.399902
1452.382428	2299.399902
1452.906515	2298.0
1453.430546	2308.600098
1453.954523	2302.199951
1454.478444	2306.800049
1455.002311	2301.199951
1455.526123	2320.800049
1456.049879	2295.0
1456.573581	2287.600098
1457.097227	2293.800049
1457.620819	2299.199951
1458.144356	2294.800049
1458.667837	2294.199951
1459.191264	2287.600098
1459.714636	2304.600098
1460.237952	2282.399902
1460.761214	2292.600098
1461.284421	2277.399902
1461.807573	2279.399902
1462.33067	2288.0
1462.853712	2284.0
1463.376699	2272.600098
1463.899632	2277.800049
1464.422509	2295.600098
1464.945331	2291.399902
1465.468099	2272.399902
1465.990811	2264.399902
1466.513469	2281.399902
1467.036071	2264.600098
1467.558619	2268.600098
1468.081112	2272.800049
1468.60355	2269.399902
1469.125933	2274.800049
1469.648261	2268.600098
1470.170534	2278.600098
1470.692752	2259.399902
1471.214916	2267.0
1471.737024	2257.0
1472.259078	2255.800049
1472.781077	2270.399902
1473.303021	2237.600098
1473.82491	2262.800049
1474.346744	2266.199951
1474.868523	2266.399902
1475.390248	2246.0
1475.911917	2243.199951
1476.433532	2241.399902
1476.955092	2259.600098
1477.476597	2240.199951
1477.998047	2256.600098
1478.519442	2249.600098
1479.040783	2240.399902
1479.562068	2241.600098
1480.083299	2235.199951
1480.604475	2231.800049
1481.125596	2245.600098
1481.646663	2242.399902
1482.167674	2234.800049
1482.688631	2237.199951
1483.209533	2242.399902
1483.73038	2231.800049
1484.251172	2240.399902
1484.771909	2228.0
1485.292592	2223.800049
1485.81322	2225.0
1486.333793	2236.800049
1486.854311	2234.0
1487.374775	2240.399902
1487.895183	2224.399902
1488.415537	2210.0
1488.935836	2212.600098
1489.456081	2226.0
1489.97627	2220.399902
1490.496405	2219.399902
1491.016485	2218.399902
1491.536511	2226.199951
1492.056481	2216.0
1492.576397	2222.600098
1493.096258	2212.199951
1493.616064	2234.399902
1494.135816	2222.800049
1494.655513	2222.199951
1495.175155	2224.399902
1495.694742	2211.0
1496.214274	2205.399902
1496.733752	2207.199951
1497.253175	2204.0
1497.772544	2208.800049
1498.291858	2222.199951
1498.811116	2216.199951
1499.330321	2203.600098
1499.84947	2226.600098
1500.368565	2194.600098
1500.887605	2223.199951
1501.406591	2201.600098
1501.925521	2189.600098
1502.444397	2205.199951
1502.963219	2225.199951
1503.481985	2222.399902
1504.000697	2193.0
1504.519355	2192.600098
1505.037957	2197.800049
1505.556505	2211.0
1506.074999	2203.199951
1506.593437	2198.199951
1507.111821	2218.199951
1507.63015	2203.399902
1508.148425	2191.800049
1508.666645	2180.0
1509.18481	2176.399902
1509.702921	2197.600098
1510.220977	2183.600098
1510.738979	2211.199951
1511.256925	2199.600098
1511.774817	2213.199951
1512.292655	2177.199951
1512.810438	2198.800049
1513.328166	2183.199951
1513.84584	2193.0
1514.363459	2173.600098
1514.881023	2182.0
1515.398533	2179.800049
1515.915988	2181.399902
1516.433389	2193.800049
1516.950734	2184.199951
1517.468026	2186.0
1517.985263	2196.600098
1518.502445	2189.399902
1519.019572	2182.800049
1519.536645	2181.399902
1520.053664	2196.0
1520.570628	2179.199951
1521.087537	2186.600098
1521.604392	2148.399902
1522.121192	2189.800049
1522.637937	2180.800049
1523.154628	2194.0
1523.671265	2197.0
1524.187847	2158.399902
1524.704374	2150.600098
1525.220847	2185.199951
1525.737265	2173.600098
1526.253629	2187.600098
1526.769938	2187.800049
1527.286192	2175.800049
1527.802392	2165.800049
1528.318538	2159.0
1528.834629	2173.0
1529.350666	2151.800049
1529.866648	2168.399902
1530.382575	2163.800049
1530.898448	2167.800049
1531.414266	2159.600098
1531.93003	2179.399902
1532.44574	2175.600098
1532.961395	2184.399902
1533.476995	2167.0
1533.992541	2180.399902
1534.508033	2168.199951
1535.02347	2162.199951
1535.538852	2166.600098
1536.05418	2163.199951
1536.569454	2164.399902
1537.084673	2169.600098
1537.599837	2153.399902
1538.114947	2146.600098
1538.630003	2172.600098
1539.145004	2159.399902
1539.659951	2135.800049
1540.174843	2162.800049
1540.689681	2152.800049
1541.204465	2151.0
1541.719194	2158.800049
1542.233868	2177.199951
1542.748488	2159.800049
1543.263054	2188.800049
1543.777565	2145.199951
1544.292022	2166.199951
1544.806424	2166.600098
1545.320772	2154.600098
1545.835066	2150.800049
1546.349305	2137.800049
1546.863489	2157.600098
1547.37762	2167.600098
1547.891696	2169.0
1548.405717	2170.199951
1548.919684	2149.0
1549.433597	2152.199951
1549.947455	2152.0
1550.461259	2157.399902
1550.975009	2147.399902
1551.488704	2146.0
1552.002345	2132.600098
1552.515931	2157.600098
1553.029463	2158.800049
1553.542941	2127.399902
1554.056364	2147.199951
1554.569733	2136.600098
1555.083048	2148.399902
1555.596308	2167.399902
1556.109514	2150.800049
1556.622665	2146.399902
1557.135762	2148.0
1557.648805	2154.600098
1558.161794	2140.600098
1558.674728	2149.399902
1559.187608	2150.800049
1559.700433	2131.800049
1560.213205	2137.0
1560.725921	2134.0
1561.238584	2139.600098
1561.751192	2155.600098
1562.263746	2126.800049
1562.776246	2131.600098
1563.288691	2134.199951
1563.801082	2137.800049
1564.313419	2128.0
1564.825701	2153.0
1565.337929	2115.399902
1565.850103	2136.199951
1566.362223	2131.199951
1566.874288	2162.800049
1567.386299	2150.600098
1567.898256	2146.800049
1568.410158	2137.399902
1568.922007	2131.399902
1569.4338	2133.800049
1569.94554	2123.800049
1570.457226	2138.0
1570.968857	2118.199951
1571.480434	2149.0
1571.991956	2129.399902
1572.503425	2147.399902
1573.014839	2124.399902
1573.526199	2140.399902
1574.037505	2119.600098
1574.548756	2115.800049
1575.059953	2133.800049
1575.571096	2116.199951
1576.082185	2140.0
1576.59322	2129.199951
1577.1042	2131.199951
1577.615126	2113.0
1578.125998	2119.800049
1578.636816	2108.800049
1579.14758	2116.199951
1579.658289	2116.0
1580.168944	2095.399902
1580.679545	2124.399902
1581.190092	2103.0
1581.700585	2127.199951
1582.211023	2084.600098
1582.721407	2124.399902
1583.231737	2137.399902
1583.742013	2113.0
1584.252235	2098.199951
1584.762403	2115.399902
1585.272516	2097.199951
1585.782575	2114.399902
1586.292581	2112.800049
1586.802532	2110.0
1587.312428	2126.0
1587.822271	2095.800049
1588.33206	2105.399902
1588.841794	2105.199951
1589.351474	2118.0
1589.8611	2100.800049
1590.370672	2115.0
1590.88019	2105.600098
1591.389654	2100.800049
1591.899064	2099.199951
1592.408419	2099.800049
