1042.452273	1423.0
1043.018714	1426.400024
1043.585098	1418.0
1044.151424	1421.400024
1044.717692	1412.599976
1045.283903	1429.800049
1045.850056	1436.400024
1046.416151	1423.400024
1046.982188	1420.800049
1047.548167	1408.400024
1048.114089	1432.599976
1048.679953	1417.0
1049.24576	1414.199951
1049.811509	1423.800049
1050.3772	1410.199951
1050.942833	1413.599976
1051.508408	1425.0
1052.073926	1431.800049
1052.639387	1420.199951
1053.204789	1416.0
1053.770134	1403.400024
1054.335421	1413.400024
1054.900651	1417.800049
1055.465823	1399.800049
1056.030937	1407.199951
1056.595993	1409.599976
1057.160992	1408.199951
1057.725934	1405.199951
1058.290817	1412.0
1058.855643	1398.599976
1059.420411	1388.199951
1059.985122	1389.199951
1060.549775	1399.599976
1061.114371	1392.400024
1061.678908	1395.199951
1062.243389	1403.199951
1062.807811	1395.0
1063.372176	1401.0
1063.936483	1395.599976
1064.500733	1389.400024
1065.064925	1400.800049
1065.62906	1390.599976
1066.193137	1387.599976
1066.757156	1393.199951
1067.321118	1394.800049
1067.885022	1385.800049
1068.448869	1396.599976
1069.012658	1386.0
1069.57639	1386.0
1070.140063	1400.199951
1070.70368	1385.800049
1071.267239	1389.599976
1071.83074	1396.800049
1072.394184	1387.199951
1072.95757	1397.0
1073.520899	1396.0
1074.08417	1387.400024
1074.647383	1391.0
1075.21054	1383.599976
1075.773638	1394.400024
1076.336679	1393.599976
1076.899663	1383.0
1077.462589	1391.599976
1078.025457	1375.199951
1078.588268	1383.0
1079.151022	1383.599976
1079.713718	1382.199951
1080.276356	1363.199951
1080.838937	1380.800049
1081.401461	1386.400024
1081.963927	1388.800049
1082.526336	1382.800049
1083.088687	1380.599976
1083.650981	1372.199951
1084.213217	1366.400024
1084.775396	1385.599976
1085.337517	1374.0
1085.899581	1374.800049
1086.461587	1373.0
1087.023536	1380.800049
1087.585428	1378.0
1088.147262	1362.800049
1088.709039	1357.400024
1089.270758	1378.400024
1089.83242	1364.400024
1090.394024	1359.199951
1090.955571	1376.599976
1091.517061	1362.599976
1092.078493	1359.800049
1092.639868	1367.800049
1093.201185	1363.400024
1093.762445	1359.400024
1094.323648	1362.800049
1094.884793	1357.800049
1095.445881	1357.400024
1096.006911	1353.400024
1096.567884	1355.199951
1097.1288	1351.400024
1097.689659	1369.199951
1098.25046	1358.199951
1098.811203	1343.0
1099.37189	1356.400024
1099.932518	1359.199951
1100.49309	1358.400024
1101.053604	1340.0
1101.614061	1353.800049
1102.174461	1347.800049
1102.734803	1348.199951
1103.295088	1348.400024
1103.855316	1342.400024
1104.415486	1346.599976
1104.975599	1342.199951
1105.535655	1335.599976
1106.095653	1332.599976
1106.655594	1335.199951
1107.215478	1338.800049
1107.775305	1335.0
1108.335074	1350.0
1108.894786	1343.599976
1109.45444	1334.800049
1110.014038	1325.0
1110.573578	1329.800049
1111.133061	1332.800049
1111.692486	1343.0
1112.251854	1344.0
1112.811165	1340.599976
1113.370419	1333.800049
1113.929616	1323.400024
1114.488755	1341.0
1115.047837	1334.199951
1115.606862	1323.599976
1116.16583	1344.599976
1116.72474	1314.800049
1117.283593	1326.400024
1117.842389	1324.199951
1118.401128	1327.199951
1118.959809	1318.800049
1119.518433	1335.400024
1120.077	1322.199951
1120.63551	1331.0
1121.193963	1309.0
1121.752358	1338.0
1122.310697	1330.599976
1122.868978	1312.400024
1123.427202	1330.599976
1123.985368	1309.800049
1124.543478	1312.199951
1125.10153	1328.800049
1125.659526	1322.400024
1126.217464	1332.599976
1126.775345	1318.800049
1127.333168	1337.199951
1127.890935	1324.400024
1128.448644	1323.599976
1129.006297	1311.400024
1129.563892	1306.599976
1130.12143	1314.800049
1130.678911	1320.800049
1131.236335	1313.0
1131.793701	1328.400024
1132.351011	1316.800049
1132.908263	1315.400024
1133.465458	1325.400024
1134.022597	1317.800049
1134.579678	1315.599976
1135.136702	1316.599976
1135.693669	1309.400024
1136.250578	1327.199951
1136.807431	1313.0
1137.364227	1324.199951
1137.920965	1322.400024
1138.477647	1306.0
1139.034271	1311.800049
1140.147349	1299.199951
1140.703802	1309.199951
1141.260198	1297.199951
1141.816537	1317.800049
1142.37282	1300.800049
1142.929045	1313.199951
1143.485213	1314.199951
1144.041323	1314.800049
1144.597377	1306.199951
1145.153374	1314.599976
1145.709314	1307.599976
1146.265197	1321.400024
1146.821023	1315.199951
1147.376792	1308.800049
1147.932503	1322.400024
1148.488158	1313.800049
1149.043756	1312.599976
1149.599297	1317.199951
1150.154781	1308.400024
1150.710207	1300.800049
1151.265577	1311.0
1151.82089	1323.800049
1152.376146	1315.199951
1152.931345	1300.199951
1153.486487	1311.400024
1154.041572	1312.599976
1154.5966	1315.400024
1155.151571	1304.199951
1155.706485	1321.800049
1156.261342	1326.599976
1156.816142	1305.400024
1157.370885	1307.199951
1157.925572	1320.800049
1158.480201	1307.800049
1159.034774	1311.0
1159.589289	1311.800049
1160.143748	1302.199951
1160.698149	1309.0
1161.252494	1298.599976
1161.806782	1295.400024
1162.361013	1313.400024
1162.915187	1301.599976
1163.469304	1304.199951
1164.023364	1312.0
1164.577368	1289.400024
1165.131314	1300.400024
1165.685204	1293.400024
1166.239036	1308.0
1166.792812	1309.400024
1167.346531	1295.0
1167.900193	1311.800049
1168.453798	1296.199951
1169.007347	1301.599976
1169.560838	1300.800049
1170.114273	1314.400024
1170.66765	1306.800049
1171.220971	1293.599976
1171.774235	1297.800049
1172.327443	1311.199951
1172.880593	1282.599976
1173.433687	1298.0
1173.986723	1300.0
1174.539703	1295.599976
1175.092626	1304.0
1175.645493	1304.800049
1176.198302	1299.800049
1176.751055	1307.0
1177.303751	1295.0
1177.85639	1277.0
1178.408972	1288.400024
1178.961498	1298.400024
1179.513966	1284.800049
1180.066378	1303.800049
1180.618733	1294.599976
1181.171032	1286.199951
1181.723273	1292.0
1182.275458	1303.0
1182.827586	1281.800049
1183.379657	1295.800049
1183.931672	1287.800049
1184.48363	1295.599976
1185.035531	1293.400024
1185.587375	1288.0
1186.139162	1287.800049
1186.690893	1288.599976
1187.242567	1296.0
1187.794184	1285.599976
1188.345745	1300.0
1188.897249	1276.0
1189.448696	1285.400024
1190.000086	1288.199951
1190.55142	1272.800049
1191.102697	1284.199951
1191.653918	1292.400024
1192.205081	1295.199951
1192.756188	1282.400024
1193.307238	1294.800049
1193.858232	1287.199951
1194.409169	1285.400024
1194.960049	1290.800049
1195.510872	1281.400024
1196.061639	1287.400024
1196.612349	1276.400024
1197.163003	1276.400024
1197.713599	1287.400024
1198.264139	1279.800049
1198.814623	1290.599976
1199.36505	1284.0
1199.91542	1272.400024
1200.465734	1284.400024
1201.01599	1271.0
1201.566191	1281.800049
1202.116334	1274.400024
1202.666421	1278.800049
1203.216452	1273.800049
1203.766425	1269.800049
1204.316343	1273.199951
1204.866203	1271.800049
1205.416007	1270.0
1205.965754	1283.599976
1206.515445	1268.800049
1207.065079	1273.599976
1207.614657	1271.400024
1208.164177	1268.800049
1208.713642	1258.800049
1209.26305	1266.199951
1209.812401	1279.199951
1210.361695	1272.0
1210.910933	1269.800049
1211.460115	1265.199951
1212.00924	1278.599976
1212.558308	1273.400024
1213.10732	1264.800049
1213.656275	1259.0
1214.205174	1265.599976
1214.754016	1274.0
1215.302801	1270.599976
1215.85153	1268.400024
1216.400203	1262.0
1216.948819	1269.0
1217.497378	1274.599976
1218.045881	1267.800049
1218.594327	1267.0
1219.142717	1269.0
1219.691051	1264.800049
1220.239327	1267.400024
1220.787548	1270.199951
1221.335712	1260.599976
1221.883819	1257.199951
1222.43187	1262.400024
1222.979864	1259.0
1223.527802	1266.0
1224.075683	1266.400024
1224.623508	1261.0
1225.171277	1256.199951
1225.718989	1246.800049
1226.266644	1262.400024
1226.814243	1248.0
1227.361786	1248.199951
1227.909272	1272.199951
1228.456702	1255.599976
1229.004075	1265.800049
1229.551392	1255.599976
1230.098652	1265.800049
1230.645856	1256.599976
1231.193003	1255.800049
1231.740094	1268.0
1232.287129	1259.400024
1232.834107	1254.400024
1233.381029	1261.0
1233.927894	1255.599976
1234.474703	1265.199951
1235.021455	1260.599976
1235.568151	1251.0
1236.114791	1252.0
1236.661374	1247.800049
1237.207901	1246.599976
1237.754372	1257.400024
1238.300786	1253.400024
1238.847144	1257.199951
1239.393445	1253.199951
1239.93969	1256.0
1240.485879	1253.599976
1241.032011	1258.599976
1241.578087	1249.199951
1242.124106	1249.199951
1242.67007	1264.599976
1243.215976	1245.599976
1243.761827	1261.800049
1244.307621	1265.0
1244.853359	1244.0
1245.39904	1247.599976
1245.944665	1252.800049
1246.490234	1244.599976
1247.035746	1240.599976
1247.581203	1255.199951
1248.126602	1251.199951
1248.671946	1240.599976
1249.217233	1232.400024
1249.762464	1254.599976
1250.307638	1248.199951
1250.852757	1249.400024
1251.397819	1244.199951
1251.942824	1244.0
1252.487774	1231.599976
1253.032667	1250.0
1253.577503	1240.599976
1254.122284	1248.0
1254.667008	1240.599976
1255.211676	1244.800049
1255.756288	1241.400024
1256.300843	1247.400024
1256.845342	1244.800049
1257.389785	1246.599976
1257.934172	1248.0
1258.478502	1234.199951
1259.022776	1250.400024
1259.566994	1242.599976
1260.111156	1245.199951
1260.655261	1240.0
1261.199311	1249.599976
1261.743304	1236.599976
1262.28724	1236.0
1262.831121	1246.400024
1263.374945	1238.599976
1263.918713	1243.400024
1264.462425	1255.199951
1265.006081	1263.400024
1265.54968	1270.0
1266.093223	1257.800049
1266.636711	1243.599976
1267.180141	1243.800049
1267.723516	1233.400024
1268.266835	1234.599976
1268.810097	1223.800049
1269.353303	1227.800049
1269.896453	1224.599976
1270.439547	1236.400024
1270.982584	1233.0
1271.525566	1242.400024
1272.068491	1240.400024
1272.61136	1220.599976
1273.154173	1220.400024
1273.69693	1235.199951
1274.239631	1246.400024
1274.782275	1223.800049
1275.324864	1233.400024
1275.867396	1217.599976
1276.409872	1224.199951
1276.952292	1231.199951
1277.494656	1224.0
1278.036964	1226.0
1278.579215	1227.400024
1279.121411	1226.599976
1279.66355	1222.199951
1280.205634	1224.199951
1280.747661	1230.199951
1281.289632	1230.199951
1281.831547	1240.199951
1282.373406	1223.199951
1282.915209	1244.599976
1283.456955	1242.599976
1283.998646	1269.199951
1284.540281	1397.800049
1285.081859	1719.400024
1285.623381	1882.599976
1286.164848	1454.800049
1286.706258	1285.800049
1287.247612	1252.599976
1287.788911	1229.599976
1288.330153	1227.599976
1288.871339	1218.599976
1289.412469	1227.599976
1289.953543	1218.400024
1290.494561	1222.0
1291.035523	1223.599976
1291.576428	1221.599976
1292.117278	1217.800049
1292.658072	1232.0
1293.19881	1218.199951
1293.739492	1216.599976
1294.280118	1210.599976
1294.820687	1224.199951
1295.361201	1226.199951
1295.901659	1210.199951
1296.442061	1216.599976
1296.982406	1212.599976
1297.522696	1207.0
1298.06293	1214.599976
1298.603108	1202.400024
1299.143229	1208.0
1299.683295	1219.599976
1300.223305	1219.800049
1300.763259	1220.599976
1301.303157	1206.400024
1301.842999	1210.599976
1302.382785	1214.199951
1302.922515	1202.199951
1303.462189	1214.0
1304.001807	1216.400024
1304.541369	1224.800049
1305.080875	1204.800049
1305.620326	1203.599976
1306.15972	1203.199951
1306.699058	1212.800049
1307.238341	1214.199951
1307.777567	1206.800049
1308.316738	1213.599976
1308.855853	1213.400024
1309.394912	1198.599976
1309.933915	1203.0
1310.472862	1209.400024
1311.011753	1201.199951
1311.550588	1204.599976
1312.089367	1201.800049
1312.62809	1212.0
1313.166758	1188.599976
1313.70537	1202.199951
1314.243925	1196.0
1314.782425	1210.199951
1315.320869	1211.199951
1315.859257	1201.400024
1316.397589	1194.400024
1316.935866	1197.0
1317.474086	1205.199951
1318.012251	1204.599976
1318.55036	1200.800049
1319.088413	1184.400024
1319.62641	1204.0
1320.164351	1201.199951
1320.702236	1195.199951
1321.240066	1188.599976
1321.777839	1190.199951
1322.315557	1207.599976
1322.853219	1202.400024
1323.390826	1195.400024
1323.928376	1195.400024
1324.465871	1202.400024
1325.003309	1203.199951
1325.540692	1184.199951
1326.07802	1189.199951
1326.615291	1197.800049
1327.152506	1196.0
1327.689666	1192.599976
1328.22677	1182.0
1328.763818	1186.599976
1329.300811	1201.400024
1329.837747	1192.599976
1330.374628	1203.599976
1330.911453	1198.199951
1331.448222	1200.0
1331.984936	1191.400024
1332.521594	1183.199951
1333.058196	1178.0
1333.594742	1173.400024
1334.131232	1180.400024
1334.667667	1180.199951
1335.204046	1188.800049
1335.740369	1180.400024
1336.276637	1185.800049
1336.812848	1184.199951
1337.349004	1194.0
1337.885105	1191.800049
1338.421149	1191.800049
1338.957138	1182.599976
1339.493071	1184.0
1340.028949	1183.0
1340.56477	1182.599976
1341.100536	1182.800049
1341.636246	1185.599976
1342.171901	1188.800049
1342.7075	1182.800049
1343.243043	1175.400024
1343.77853	1169.400024
1344.313962	1179.0
1344.849338	1175.400024
1345.384659	1174.400024
1345.919923	1180.800049
1346.455133	1181.800049
1346.990286	1186.400024
1347.525384	1180.800049
1348.060426	1189.199951
1348.595412	1168.400024
1349.130343	1166.400024
1349.665218	1185.400024
1350.200037	1172.599976
1350.734801	1181.599976
1351.269509	1178.199951
1351.804162	1184.599976
1352.338758	1172.599976
1352.8733	1170.400024
1353.407785	1178.599976
1353.942215	1170.400024
1354.476589	1175.199951
1355.010908	1165.199951
1355.545171	1180.599976
1356.079379	1165.400024
1356.61353	1169.800049
1357.147627	1168.0
1357.681667	1171.800049
1358.215652	1179.400024
1358.749582	1177.400024
1359.283456	1168.199951
1359.817274	1175.199951
1360.351037	1174.599976
1360.884744	1161.400024
1361.418395	1163.400024
1361.951991	1167.400024
1362.485531	1174.400024
1363.019016	1170.800049
1363.552445	1170.800049
1364.085819	1155.0
1364.619137	1173.599976
1365.1524	1175.400024
1365.685607	1170.800049
1366.218758	1168.599976
1366.751854	1173.400024
1367.284894	1156.199951
1367.817879	1164.199951
1368.350808	1166.599976
1368.883682	1176.800049
1369.4165	1172.199951
1369.949263	1187.400024
1370.48197	1188.400024
1371.014622	1174.599976
1371.547218	1147.0
1372.079758	1165.400024
1372.612244	1169.599976
1373.144673	1155.0
1373.677047	1152.599976
1374.209366	1168.599976
1374.741629	1160.599976
1375.273836	1162.800049
1375.805989	1177.599976
1376.338085	1152.400024
1376.870126	1166.800049
1377.402112	1158.800049
1377.934042	1160.400024
1378.465917	1153.199951
1378.997736	1158.800049
1379.5295	1150.599976
1380.061208	1157.199951
1380.592861	1154.400024
1381.124459	1161.199951
1381.656	1169.599976
1382.187487	1164.0
1382.718918	1160.800049
1383.250294	1173.800049
1383.781614	1165.400024
1384.312879	1162.0
1384.844088	1161.0
1385.375242	1175.0
1385.90634	1168.400024
1386.437383	1190.199951
1386.968371	1203.400024
1387.499303	1235.0
1388.03018	1500.400024
1388.561001	2210.600098
1389.091767	2046.800049
1389.622478	1362.199951
1390.153133	1213.0
1390.683733	1191.0
1391.214277	1173.800049
1391.744766	1161.0
1392.2752	1171.400024
1392.805578	1158.0
1393.335901	1160.400024
1393.866168	1153.199951
1394.396381	1154.0
1394.926537	1158.800049
1395.456639	1146.199951
1395.986685	1166.599976
1396.516675	1151.800049
1397.046611	1166.0
1397.576491	1163.400024
1398.106315	1152.400024
1398.636084	1163.599976
1399.165798	1160.599976
1399.695457	1154.0
1400.22506	1146.400024
1400.754608	1147.599976
1401.284101	1143.0
1401.813538	1153.400024
1402.34292	1148.0
1402.872247	1158.400024
1403.401518	1148.400024
1403.930734	1149.800049
1404.459895	1140.400024
1404.989	1145.599976
1405.51805	1151.800049
1406.047045	1149.800049
1406.575984	1154.800049
1407.104869	1159.0
1407.633697	1148.400024
1408.162471	1152.0
1408.691189	1164.599976
1409.219852	1173.199951
1409.74846	1216.199951
1410.277013	1216.0
1410.80551	1185.400024
1411.333952	1157.800049
1411.862339	1148.800049
1412.39067	1144.400024
1412.918946	1136.800049
1413.447167	1139.199951
1413.975333	1149.400024
1414.503444	1146.800049
1415.031499	1150.400024
1415.559499	1152.400024
1416.087444	1126.400024
1416.615333	1140.199951
1417.143167	1137.199951
1417.670947	1146.400024
1418.19867	1142.800049
1418.726339	1149.0
1419.253952	1147.599976
1419.781511	1141.800049
1420.309014	1140.599976
1420.836461	1142.400024
1421.363854	1138.599976
1421.891191	1140.0
1422.418474	1137.800049
1422.945701	1148.0
1423.472872	1132.0
1423.999989	1142.400024
1424.52705	1139.199951
1425.054057	1136.0
1425.581008	1149.199951
1426.107904	1133.199951
1426.634745	1142.199951
1427.16153	1140.599976
1427.688261	1134.0
1428.214936	1131.599976
1428.741556	1151.0
1429.268121	1140.599976
1429.794631	1132.400024
1430.321085	1126.199951
1430.847485	1120.599976
1431.373829	1137.0
1431.900118	1133.400024
1432.426353	1129.599976
1432.952532	1129.400024
1433.478655	1133.400024
1434.004724	1134.599976
1434.530738	1137.800049
1435.056696	1131.800049
1435.5826	1139.199951
1436.108448	1126.599976
1436.634241	1130.0
1437.159979	1132.400024
1437.685662	1124.800049
1438.21129	1144.0
1438.736863	1132.0
1439.262381	1123.400024
1439.787843	1126.199951
1440.313251	1126.0
1440.838603	1128.400024
1441.3639	1118.199951
1441.889143	1128.599976
1442.41433	1125.800049
1442.939462	1133.800049
1443.464539	1113.599976
1443.989561	1133.0
1444.514528	1123.0
1445.03944	1125.599976
1445.564297	1134.199951
1446.089099	1119.199951
1446.613846	1132.199951
1447.138537	1122.0
1447.663174	1124.800049
1448.187756	1125.0
1448.712282	1128.199951
1449.236754	1129.0
1449.761171	1116.199951
1450.285532	1121.800049
1450.809839	1127.0
1451.33409	1127.599976
1451.858287	1123.400024
1452.382428	1125.599976
1452.906515	1117.0
1453.430546	1129.800049
1453.954523	1131.400024
1454.478444	1129.599976
1455.002311	1118.199951
1455.526123	1127.0
1456.049879	1113.199951
1456.573581	1119.400024
1457.097227	1120.800049
1457.620819	1131.199951
1458.144356	1115.800049
1458.667837	1124.599976
1459.191264	1113.800049
1459.714636	1118.0
1460.237952	1098.800049
1460.761214	1121.0
1461.284421	1119.0
1461.807573	1116.400024
1462.33067	1102.0
1462.853712	1123.599976
1463.376699	1114.800049
1463.899632	1119.199951
1464.422509	1120.0
1464.945331	1108.0
1465.468099	1106.400024
1465.990811	1112.199951
1466.513469	1109.199951
1467.036071	1111.199951
1467.558619	1107.599976
1468.081112	1115.599976
1468.60355	1125.0
1469.125933	1106.599976
1469.648261	1101.400024
1470.170534	1106.800049
1470.692752	1119.599976
1471.214916	1117.400024
1471.737024	1104.199951
1472.259078	1109.0
1472.781077	1115.599976
1473.303021	1107.0
1473.82491	1117.599976
1474.346744	1112.800049
1474.868523	1105.400024
1475.390248	1108.400024
1475.911917	1106.0
1476.433532	1101.199951
1476.955092	1118.199951
1477.476597	1106.400024
1477.998047	1114.599976
1478.519442	1106.400024
1479.040783	1115.400024
1479.562068	1113.800049
1480.083299	1110.400024
1480.604475	1107.400024
1481.125596	1106.599976
1481.646663	1098.800049
1482.167674	1093.400024
1482.688631	1100.0
1483.209533	1108.0
1483.73038	1107.199951
1484.251172	1103.599976
1484.771909	1103.199951
1485.292592	1116.599976
1485.81322	1108.599976
1486.333793	1107.199951
1486.854311	1102.0
1487.374775	1104.400024
1487.895183	1099.800049
1488.415537	1098.599976
1488.935836	1100.0
1489.456081	1097.599976
1489.97627	1114.0
1490.496405	1092.599976
1491.016485	1096.0
1491.536511	1097.599976
1492.056481	1104.599976
1492.576397	1096.400024
1493.096258	1101.800049
1493.616064	1100.800049
1494.135816	1100.199951
1494.655513	1098.0
1495.175155	1095.0
1495.694742	1088.400024
1496.214274	1106.800049
1496.733752	1089.400024
1497.253175	1088.599976
1497.772544	1098.199951
1498.291858	1106.800049
1498.811116	1108.800049
1499.330321	1099.599976
1499.84947	1093.400024
1500.368565	1098.599976
1500.887605	1085.800049
1501.406591	1098.0
1501.925521	1097.400024
1502.444397	1096.800049
1502.963219	1090.800049
1503.481985	1104.599976
1504.000697	1097.400024
1504.519355	1092.599976
1505.037957	1096.199951
1505.556505	1094.599976
1506.074999	1091.599976
1506.593437	1086.0
1507.111821	1080.400024
1507.63015	1088.0
1508.148425	1087.199951
1508.666645	1090.800049
1509.18481	1092.800049
1509.702921	1093.800049
1510.220977	1082.199951
1510.738979	1096.400024
1511.256925	1103.400024
1511.774817	1082.199951
1512.292655	1088.800049
1512.810438	1087.199951
1513.328166	1087.599976
1513.84584	1088.400024
1514.363459	1079.800049
1514.881023	1086.599976
1515.398533	1084.599976
1515.915988	1081.0
1516.433389	1096.0
1516.950734	1085.0
1517.468026	1083.0
1517.985263	1087.0
1518.502445	1075.199951
1519.019572	1090.800049
1519.536645	1083.800049
1520.053664	1088.599976
1520.570628	1085.199951
1521.087537	1089.599976
1521.604392	1088.0
1522.121192	1088.0
1522.637937	1097.400024
1523.154628	1100.800049
1523.671265	1085.599976
1524.187847	1100.599976
1524.704374	1080.0
1525.220847	1084.599976
1525.737265	1081.0
1526.253629	1088.599976
1526.769938	1086.0
1527.286192	1095.199951
1527.802392	1072.400024
1528.318538	1082.800049
1528.834629	1082.400024
1529.350666	1071.199951
1529.866648	1077.599976
1530.382575	1087.599976
1530.898448	1087.0
1531.414266	1072.599976
1531.93003	1080.199951
1532.44574	1096.800049
1532.961395	1077.199951
1533.476995	1092.199951
1533.992541	1082.400024
1534.508033	1089.599976
1535.02347	1080.400024
1535.538852	1088.400024
1536.05418	1084.800049
1536.569454	1085.400024
1537.084673	1079.599976
1537.599837	1069.0
1538.114947	1066.400024
1538.630003	1081.599976
1539.145004	1079.400024
1539.659951	1076.400024
1540.174843	1076.199951
1540.689681	1080.599976
1541.204465	1075.800049
1541.719194	1078.800049
1542.233868	1082.0
1542.748488	1071.199951
1543.263054	1076.199951
1543.777565	1078.0
1544.292022	1087.599976
1544.806424	1079.199951
1545.320772	1072.599976
1545.835066	1089.0
1546.349305	1068.0
1546.863489	1076.0
1547.37762	1075.199951
1547.891696	1070.800049
1548.405717	1082.400024
1548.919684	1069.400024
1549.433597	1072.599976
1549.947455	1085.800049
1550.461259	1067.599976
1550.975009	1081.400024
1551.488704	1079.599976
1552.002345	1079.199951
1552.515931	1082.400024
1553.029463	1077.0
1553.542941	1078.0
1554.056364	1078.800049
1554.569733	1085.800049
1555.083048	1074.199951
1555.596308	1078.599976
1556.109514	1065.199951
1556.622665	1074.599976
1557.135762	1076.599976
1557.648805	1078.0
1558.161794	1073.0
1558.674728	1080.0
1559.187608	1073.599976
1559.700433	1081.400024
1560.213205	1073.400024
1560.725921	1072.599976
1561.238584	1074.400024
1561.751192	1075.199951
1562.263746	1074.400024
1562.776246	1079.0
1563.288691	1068.800049
1563.801082	1066.0
1564.313419	1076.400024
1564.825701	1076.400024
1565.337929	1066.199951
1565.850103	1074.800049
1566.362223	1067.599976
1566.874288	1070.199951
1567.386299	1071.400024
1567.898256	1066.400024
1568.410158	1071.400024
1568.922007	1067.199951
1569.4338	1078.599976
1569.94554	1068.199951
1570.457226	1074.599976
1570.968857	1056.800049
1571.480434	1084.800049
1571.991956	1068.800049
1572.503425	1081.0
1573.014839	1074.800049
1573.526199	1062.800049
1574.037505	1071.400024
1574.548756	1068.199951
1575.059953	1076.199951
1575.571096	1079.400024
1576.082185	1076.199951
1576.59322	1073.599976
1577.1042	1068.599976
1577.615126	1069.400024
1578.125998	1069.400024
1578.636816	1061.0
1579.14758	1075.199951
1579.658289	1070.0
1580.168944	1071.800049
1580.679545	1063.0
1581.190092	1063.599976
1581.700585	1067.800049
1582.211023	1054.400024
1582.721407	1070.400024
1583.231737	1066.800049
1583.742013	1058.199951
1584.252235	1067.199951
1584.762403	1062.599976
1585.272516	1068.0
1585.782575	1065.599976
1586.292581	1061.199951
1586.802532	1050.0
1587.312428	1066.199951
1587.822271	1059.199951
1588.33206	1065.199951
1588.841794	1071.599976
1589.351474	1069.400024
1589.8611	1066.199951
1590.370672	1058.400024
1590.88019	1070.599976
1591.389654	1058.400024
1591.899064	1069.400024
