 1.042452273E+03	 4.593500000E+04
 1.043018714E+03	 4.587200000E+04
 1.043585098E+03	 4.593200000E+04
 1.044151424E+03	 4.616600000E+04
 1.044717692E+03	 4.587500000E+04
 1.045283903E+03	 4.609300000E+04
 1.045850056E+03	 4.563900000E+04
 1.046416151E+03	 4.598600000E+04
 1.046982188E+03	 4.577200000E+04
 1.047548167E+03	 4.555100000E+04
 1.048114089E+03	 4.566400000E+04
 1.048679953E+03	 4.586000000E+04
 1.049245760E+03	 4.572800000E+04
 1.049811509E+03	 4.600600000E+04
 1.050377200E+03	 4.536700000E+04
 1.050942833E+03	 4.570300000E+04
 1.051508408E+03	 4.549500000E+04
 1.052073926E+03	 4.537600000E+04
 1.052639387E+03	 4.522200000E+04
 1.053204789E+03	 4.557600000E+04
 1.053770134E+03	 4.551300000E+04
 1.054335421E+03	 4.571700000E+04
 1.054900651E+03	 4.528100000E+04
 1.055465823E+03	 4.554100000E+04
 1.056030937E+03	 4.517800000E+04
 1.056595993E+03	 4.550100000E+04
 1.057160992E+03	 4.539400000E+04
 1.057725934E+03	 4.546300000E+04
 1.058290817E+03	 4.508900000E+04
 1.058855643E+03	 4.544600000E+04
 1.059420411E+03	 4.529000000E+04
 1.059985122E+03	 4.522500000E+04
 1.060549775E+03	 4.501300000E+04
 1.061114371E+03	 4.506500000E+04
 1.061678908E+03	 4.495300000E+04
 1.062243389E+03	 4.523000000E+04
 1.062807811E+03	 4.503400000E+04
 1.063372176E+03	 4.518500000E+04
 1.063936483E+03	 4.491000000E+04
 1.064500733E+03	 4.488100000E+04
 1.065064925E+03	 4.474500000E+04
 1.065629060E+03	 4.504600000E+04
 1.066193137E+03	 4.485700000E+04
 1.066757156E+03	 4.498300000E+04
 1.067321118E+03	 4.463900000E+04
 1.067885022E+03	 4.466300000E+04
 1.068448869E+03	 4.467300000E+04
 1.069012658E+03	 4.473300000E+04
 1.069576390E+03	 4.465200000E+04
 1.070140063E+03	 4.471000000E+04
 1.070703680E+03	 4.458000000E+04
 1.071267239E+03	 4.487600000E+04
 1.071830740E+03	 4.460600000E+04
 1.072394184E+03	 4.468300000E+04
 1.072957570E+03	 4.462200000E+04
 1.073520899E+03	 4.452700000E+04
 1.074084170E+03	 4.454500000E+04
 1.074647383E+03	 4.422400000E+04
 1.075210540E+03	 4.417100000E+04
 1.075773638E+03	 4.391700000E+04
 1.076336679E+03	 4.403800000E+04
 1.076899663E+03	 4.413400000E+04
 1.077462589E+03	 4.412200000E+04
 1.078025457E+03	 4.431000000E+04
 1.078588268E+03	 4.403400000E+04
 1.079151022E+03	 4.412800000E+04
 1.079713718E+03	 4.405000000E+04
 1.080276356E+03	 4.399400000E+04
 1.080838937E+03	 4.392600000E+04
 1.081401461E+03	 4.392000000E+04
 1.081963927E+03	 4.394200000E+04
 1.082526336E+03	 4.381100000E+04
 1.083088687E+03	 4.388200000E+04
 1.083650981E+03	 4.363500000E+04
 1.084213217E+03	 4.383000000E+04
 1.084775396E+03	 4.353900000E+04
 1.085337517E+03	 4.369000000E+04
 1.085899581E+03	 4.358400000E+04
 1.086461587E+03	 4.365500000E+04
 1.087023536E+03	 4.346500000E+04
 1.087585428E+03	 4.348300000E+04
 1.088147262E+03	 4.324200000E+04
 1.088709039E+03	 4.350700000E+04
 1.089270758E+03	 4.319600000E+04
 1.089832420E+03	 4.317300000E+04
 1.090394024E+03	 4.326900000E+04
 1.090955571E+03	 4.304700000E+04
 1.091517061E+03	 4.308800000E+04
 1.092078493E+03	 4.295600000E+04
 1.092639868E+03	 4.308100000E+04
 1.093201185E+03	 4.317200000E+04
 1.093762445E+03	 4.280800000E+04
 1.094323648E+03	 4.262700000E+04
 1.094884793E+03	 4.297600000E+04
 1.095445881E+03	 4.275000000E+04
 1.096006911E+03	 4.267500000E+04
 1.096567884E+03	 4.271500000E+04
 1.097128800E+03	 4.253500000E+04
 1.097689659E+03	 4.261600000E+04
 1.098250460E+03	 4.249300000E+04
 1.098811203E+03	 4.275000000E+04
 1.099371890E+03	 4.254700000E+04
 1.099932518E+03	 4.226200000E+04
 1.100493090E+03	 4.263500000E+04
 1.101053604E+03	 4.211300000E+04
 1.101614061E+03	 4.228800000E+04
 1.102174461E+03	 4.199600000E+04
 1.102734803E+03	 4.221000000E+04
 1.103295088E+03	 4.217200000E+04
 1.103855316E+03	 4.201000000E+04
 1.104415486E+03	 4.205400000E+04
 1.104975599E+03	 4.188100000E+04
 1.105535655E+03	 4.166000000E+04
 1.106095653E+03	 4.170600000E+04
 1.106655594E+03	 4.180900000E+04
 1.107215478E+03	 4.193300000E+04
 1.107775305E+03	 4.167100000E+04
 1.108335074E+03	 4.160100000E+04
 1.108894786E+03	 4.146600000E+04
 1.109454440E+03	 4.141400000E+04
 1.110014038E+03	 4.151700000E+04
 1.110573578E+03	 4.160500000E+04
 1.111133061E+03	 4.131400000E+04
 1.111692486E+03	 4.153500000E+04
 1.112251854E+03	 4.119200000E+04
 1.112811165E+03	 4.114600000E+04
 1.113370419E+03	 4.117700000E+04
 1.113929616E+03	 4.145600000E+04
 1.114488755E+03	 4.103300000E+04
 1.115047837E+03	 4.110000000E+04
 1.115606862E+03	 4.111200000E+04
 1.116165830E+03	 4.125500000E+04
 1.116724740E+03	 4.090900000E+04
 1.117283593E+03	 4.113000000E+04
 1.117842389E+03	 4.109700000E+04
 1.118401128E+03	 4.118100000E+04
 1.118959809E+03	 4.089500000E+04
 1.119518433E+03	 4.120600000E+04
 1.120077000E+03	 4.087700000E+04
 1.120635510E+03	 4.118600000E+04
 1.121193963E+03	 4.084400000E+04
 1.121752358E+03	 4.099200000E+04
 1.122310697E+03	 4.072900000E+04
 1.122868978E+03	 4.090500000E+04
 1.123427202E+03	 4.065900000E+04
 1.123985368E+03	 4.075000000E+04
 1.124543478E+03	 4.053900000E+04
 1.125101530E+03	 4.062400000E+04
 1.125659526E+03	 4.037600000E+04
 1.126217464E+03	 4.051200000E+04
 1.126775345E+03	 4.028800000E+04
 1.127333168E+03	 4.075800000E+04
 1.127890935E+03	 4.044000000E+04
 1.128448644E+03	 4.067500000E+04
 1.129006297E+03	 4.013800000E+04
 1.129563892E+03	 4.031000000E+04
 1.130121430E+03	 4.029900000E+04
 1.130678911E+03	 4.069400000E+04
 1.131236335E+03	 4.035800000E+04
 1.131793701E+03	 4.070000000E+04
 1.132351011E+03	 4.026000000E+04
 1.132908263E+03	 4.045600000E+04
 1.133465458E+03	 4.018600000E+04
 1.134022597E+03	 4.059300000E+04
 1.134579678E+03	 4.039700000E+04
 1.135136702E+03	 4.020600000E+04
 1.135693669E+03	 4.010000000E+04
 1.136250578E+03	 4.029000000E+04
 1.136807431E+03	 4.017700000E+04
 1.137364227E+03	 4.033100000E+04
 1.137920965E+03	 4.027300000E+04
 1.138477647E+03	 4.051600000E+04
 1.139034271E+03	 4.005700000E+04
 1.139590839E+03	 4.017800000E+04
 1.140147349E+03	 4.009100000E+04
 1.140703802E+03	 4.008300000E+04
 1.141260198E+03	 4.000000000E+04
 1.141816537E+03	 4.034400000E+04
 1.142372820E+03	 4.021100000E+04
 1.142929045E+03	 4.011300000E+04
 1.143485213E+03	 4.017800000E+04
 1.144041323E+03	 4.009900000E+04
 1.144597377E+03	 4.030600000E+04
 1.145153374E+03	 4.029200000E+04
 1.145709314E+03	 3.993200000E+04
 1.146265197E+03	 4.020700000E+04
 1.146821023E+03	 3.984700000E+04
 1.147376792E+03	 4.029000000E+04
 1.147932503E+03	 3.989200000E+04
 1.148488158E+03	 3.997200000E+04
 1.149043756E+03	 4.009000000E+04
 1.149599297E+03	 3.985300000E+04
 1.150154781E+03	 4.016500000E+04
 1.150710207E+03	 3.989100000E+04
 1.151265577E+03	 3.985600000E+04
 1.151820890E+03	 4.010900000E+04
 1.152376146E+03	 3.996500000E+04
 1.152931345E+03	 4.014900000E+04
 1.153486487E+03	 3.994700000E+04
 1.154041572E+03	 3.975200000E+04
 1.154596600E+03	 3.986200000E+04
 1.155151571E+03	 3.984500000E+04
 1.155706485E+03	 3.982200000E+04
 1.156261342E+03	 3.980900000E+04
 1.156816142E+03	 3.992000000E+04
 1.157370885E+03	 3.996900000E+04
 1.157925572E+03	 3.968400000E+04
 1.158480201E+03	 3.989800000E+04
 1.159034774E+03	 3.973700000E+04
 1.159589289E+03	 3.986100000E+04
 1.160143748E+03	 3.976500000E+04
 1.160698149E+03	 3.994600000E+04
 1.161252494E+03	 3.966200000E+04
 1.161806782E+03	 3.969000000E+04
 1.162361013E+03	 3.972300000E+04
 1.162915187E+03	 3.969000000E+04
 1.163469304E+03	 3.987700000E+04
 1.164023364E+03	 3.957800000E+04
 1.164577368E+03	 3.965500000E+04
 1.165131314E+03	 3.965000000E+04
 1.165685204E+03	 3.963500000E+04
 1.166239036E+03	 3.953000000E+04
 1.166792812E+03	 3.959200000E+04
 1.167346531E+03	 3.943300000E+04
 1.167900193E+03	 3.953800000E+04
 1.168453798E+03	 3.956600000E+04
 1.169007347E+03	 3.936900000E+04
 1.169560838E+03	 3.919500000E+04
 1.170114273E+03	 3.930400000E+04
 1.170667650E+03	 3.927400000E+04
 1.171220971E+03	 3.939100000E+04
 1.171774235E+03	 3.918900000E+04
 1.172327443E+03	 3.932400000E+04
 1.172880593E+03	 3.913300000E+04
 1.173433687E+03	 3.933200000E+04
 1.173986723E+03	 3.917400000E+04
 1.174539703E+03	 3.943700000E+04
 1.175092626E+03	 3.912000000E+04
 1.175645493E+03	 3.937600000E+04
 1.176198302E+03	 3.919100000E+04
 1.176751055E+03	 3.897100000E+04
 1.177303751E+03	 3.909800000E+04
 1.177856390E+03	 3.920000000E+04
 1.178408972E+03	 3.891000000E+04
 1.178961498E+03	 3.948300000E+04
 1.179513966E+03	 3.869900000E+04
 1.180066378E+03	 3.917700000E+04
 1.180618733E+03	 3.891400000E+04
 1.181171032E+03	 3.872600000E+04
 1.181723273E+03	 3.887000000E+04
 1.182275458E+03	 3.892300000E+04
 1.182827586E+03	 3.882200000E+04
 1.183379657E+03	 3.899000000E+04
 1.183931672E+03	 3.863400000E+04
 1.184483630E+03	 3.874300000E+04
 1.185035531E+03	 3.890500000E+04
 1.185587375E+03	 3.871200000E+04
 1.186139162E+03	 3.886600000E+04
 1.186690893E+03	 3.872100000E+04
 1.187242567E+03	 3.864200000E+04
 1.187794184E+03	 3.853700000E+04
 1.188345745E+03	 3.872000000E+04
 1.188897249E+03	 3.863100000E+04
 1.189448696E+03	 3.857400000E+04
 1.190000086E+03	 3.849500000E+04
 1.190551420E+03	 3.851300000E+04
 1.191102697E+03	 3.837700000E+04
 1.191653918E+03	 3.843300000E+04
 1.192205081E+03	 3.827900000E+04
 1.192756188E+03	 3.826300000E+04
 1.193307238E+03	 3.830000000E+04
 1.193858232E+03	 3.826800000E+04
 1.194409169E+03	 3.843300000E+04
 1.194960049E+03	 3.811200000E+04
 1.195510872E+03	 3.813600000E+04
 1.196061639E+03	 3.826700000E+04
 1.196612349E+03	 3.821100000E+04
 1.197163003E+03	 3.816700000E+04
 1.197713599E+03	 3.822000000E+04
 1.198264139E+03	 3.792200000E+04
 1.198814623E+03	 3.817400000E+04
 1.199365050E+03	 3.800100000E+04
 1.199915420E+03	 3.797900000E+04
 1.200465734E+03	 3.778400000E+04
 1.201015990E+03	 3.800900000E+04
 1.201566191E+03	 3.778700000E+04
 1.202116334E+03	 3.804800000E+04
 1.202666421E+03	 3.791800000E+04
 1.203216452E+03	 3.785600000E+04
 1.203766425E+03	 3.784900000E+04
 1.204316343E+03	 3.789200000E+04
 1.204866203E+03	 3.799300000E+04
 1.205416007E+03	 3.778800000E+04
 1.205965754E+03	 3.773000000E+04
 1.206515445E+03	 3.775700000E+04
 1.207065079E+03	 3.763400000E+04
 1.207614657E+03	 3.754900000E+04
 1.208164177E+03	 3.753000000E+04
 1.208713642E+03	 3.753000000E+04
 1.209263050E+03	 3.739900000E+04
 1.209812401E+03	 3.743000000E+04
 1.210361695E+03	 3.747000000E+04
 1.210910933E+03	 3.761100000E+04
 1.211460115E+03	 3.748900000E+04
 1.212009240E+03	 3.737200000E+04
 1.212558308E+03	 3.722100000E+04
 1.213107320E+03	 3.740200000E+04
 1.213656275E+03	 3.726900000E+04
 1.214205174E+03	 3.714300000E+04
 1.214754016E+03	 3.729200000E+04
 1.215302801E+03	 3.710400000E+04
 1.215851530E+03	 3.731100000E+04
 1.216400203E+03	 3.724600000E+04
 1.216948819E+03	 3.720100000E+04
 1.217497378E+03	 3.702000000E+04
 1.218045881E+03	 3.674100000E+04
 1.218594327E+03	 3.697600000E+04
 1.219142717E+03	 3.729600000E+04
 1.219691051E+03	 3.694400000E+04
 1.220239327E+03	 3.721100000E+04
 1.220787548E+03	 3.697800000E+04
 1.221335712E+03	 3.709500000E+04
 1.221883819E+03	 3.658900000E+04
 1.222431870E+03	 3.693800000E+04
 1.222979864E+03	 3.694800000E+04
 1.223527802E+03	 3.703600000E+04
 1.224075683E+03	 3.674400000E+04
 1.224623508E+03	 3.667800000E+04
 1.225171277E+03	 3.673300000E+04
 1.225718989E+03	 3.692900000E+04
 1.226266644E+03	 3.689700000E+04
 1.226814243E+03	 3.683800000E+04
 1.227361786E+03	 3.667700000E+04
 1.227909272E+03	 3.652900000E+04
 1.228456702E+03	 3.663800000E+04
 1.229004075E+03	 3.680400000E+04
 1.229551392E+03	 3.649100000E+04
 1.230098652E+03	 3.667300000E+04
 1.230645856E+03	 3.656500000E+04
 1.231193003E+03	 3.634000000E+04
 1.231740094E+03	 3.649800000E+04
 1.232287129E+03	 3.648700000E+04
 1.232834107E+03	 3.664600000E+04
 1.233381029E+03	 3.630300000E+04
 1.233927894E+03	 3.653600000E+04
 1.234474703E+03	 3.621000000E+04
 1.235021455E+03	 3.641600000E+04
 1.235568151E+03	 3.612200000E+04
 1.236114791E+03	 3.626500000E+04
 1.236661374E+03	 3.614000000E+04
 1.237207901E+03	 3.644600000E+04
 1.237754372E+03	 3.634700000E+04
 1.238300786E+03	 3.614100000E+04
 1.238847144E+03	 3.615600000E+04
 1.239393445E+03	 3.610000000E+04
 1.239939690E+03	 3.605900000E+04
 1.240485879E+03	 3.611600000E+04
 1.241032011E+03	 3.604900000E+04
 1.241578087E+03	 3.604100000E+04
 1.242124106E+03	 3.597200000E+04
 1.242670070E+03	 3.633100000E+04
 1.243215976E+03	 3.597600000E+04
 1.243761827E+03	 3.627100000E+04
 1.244307621E+03	 3.609500000E+04
 1.244853359E+03	 3.616100000E+04
 1.245399040E+03	 3.610800000E+04
 1.245944665E+03	 3.613100000E+04
 1.246490234E+03	 3.596800000E+04
 1.247035746E+03	 3.597700000E+04
 1.247581203E+03	 3.573000000E+04
 1.248126602E+03	 3.576400000E+04
 1.248671946E+03	 3.585300000E+04
 1.249217233E+03	 3.564100000E+04
 1.249762464E+03	 3.588200000E+04
 1.250307638E+03	 3.577900000E+04
 1.250852757E+03	 3.579600000E+04
 1.251397819E+03	 3.558400000E+04
 1.251942824E+03	 3.576800000E+04
 1.252487774E+03	 3.544000000E+04
 1.253032667E+03	 3.583600000E+04
 1.253577503E+03	 3.547300000E+04
 1.254122284E+03	 3.562300000E+04
 1.254667008E+03	 3.553500000E+04
 1.255211676E+03	 3.560300000E+04
 1.255756288E+03	 3.547600000E+04
 1.256300843E+03	 3.568400000E+04
 1.256845342E+03	 3.565900000E+04
 1.257389785E+03	 3.530600000E+04
 1.257934172E+03	 3.550600000E+04
 1.258478502E+03	 3.552000000E+04
 1.259022776E+03	 3.545700000E+04
 1.259566994E+03	 3.529300000E+04
 1.260111156E+03	 3.523000000E+04
 1.260655261E+03	 3.513400000E+04
 1.261199311E+03	 3.525200000E+04
 1.261743304E+03	 3.523600000E+04
 1.262287240E+03	 3.523300000E+04
 1.262831121E+03	 3.525400000E+04
 1.263374945E+03	 3.502100000E+04
 1.263918713E+03	 3.537600000E+04
 1.264462425E+03	 3.518700000E+04
 1.265006081E+03	 3.527000000E+04
 1.265549680E+03	 3.520300000E+04
 1.266093223E+03	 3.507000000E+04
 1.266636711E+03	 3.506800000E+04
 1.267180141E+03	 3.493600000E+04
 1.267723516E+03	 3.514800000E+04
 1.268266835E+03	 3.538000000E+04
 1.268810097E+03	 3.501500000E+04
 1.269353303E+03	 3.509400000E+04
 1.269896453E+03	 3.508800000E+04
 1.270439547E+03	 3.516300000E+04
 1.270982584E+03	 3.481100000E+04
 1.271525566E+03	 3.488000000E+04
 1.272068491E+03	 3.492700000E+04
 1.272611360E+03	 3.488600000E+04
 1.273154173E+03	 3.489700000E+04
 1.273696930E+03	 3.500600000E+04
 1.274239631E+03	 3.475100000E+04
 1.274782275E+03	 3.468200000E+04
 1.275324864E+03	 3.504000000E+04
 1.275867396E+03	 3.491100000E+04
 1.276409872E+03	 3.494200000E+04
 1.276952292E+03	 3.473100000E+04
 1.277494656E+03	 3.484300000E+04
 1.278036964E+03	 3.474400000E+04
 1.278579215E+03	 3.473600000E+04
 1.279121411E+03	 3.480800000E+04
 1.279663550E+03	 3.442400000E+04
 1.280205634E+03	 3.463700000E+04
 1.280747661E+03	 3.450000000E+04
 1.281289632E+03	 3.453800000E+04
 1.281831547E+03	 3.440700000E+04
 1.282373406E+03	 3.454300000E+04
 1.282915209E+03	 3.436900000E+04
 1.283456955E+03	 3.419400000E+04
 1.283998646E+03	 3.440100000E+04
 1.284540281E+03	 3.448100000E+04
 1.285081859E+03	 3.449100000E+04
 1.285623381E+03	 3.442500000E+04
 1.286164848E+03	 3.436200000E+04
 1.286706258E+03	 3.426700000E+04
 1.287247612E+03	 3.411500000E+04
 1.287788911E+03	 3.438100000E+04
 1.288330153E+03	 3.420000000E+04
 1.288871339E+03	 3.428100000E+04
 1.289412469E+03	 3.405200000E+04
 1.289953543E+03	 3.419300000E+04
 1.290494561E+03	 3.409700000E+04
 1.291035523E+03	 3.410200000E+04
 1.291576428E+03	 3.405200000E+04
 1.292117278E+03	 3.415900000E+04
 1.292658072E+03	 3.395900000E+04
 1.293198810E+03	 3.402200000E+04
 1.293739492E+03	 3.390700000E+04
 1.294280118E+03	 3.372400000E+04
 1.294820687E+03	 3.390300000E+04
 1.295361201E+03	 3.391100000E+04
 1.295901659E+03	 3.371900000E+04
 1.296442061E+03	 3.368400000E+04
 1.296982406E+03	 3.406600000E+04
 1.297522696E+03	 3.378800000E+04
 1.298062930E+03	 3.378200000E+04
 1.298603108E+03	 3.385400000E+04
 1.299143229E+03	 3.360300000E+04
 1.299683295E+03	 3.348000000E+04
 1.300223305E+03	 3.369000000E+04
 1.300763259E+03	 3.348800000E+04
 1.301303157E+03	 3.364600000E+04
 1.301842999E+03	 3.355800000E+04
 1.302382785E+03	 3.368000000E+04
 1.302922515E+03	 3.329900000E+04
 1.303462189E+03	 3.362800000E+04
 1.304001807E+03	 3.353500000E+04
 1.304541369E+03	 3.351000000E+04
 1.305080875E+03	 3.334700000E+04
 1.305620326E+03	 3.352600000E+04
 1.306159720E+03	 3.344700000E+04
 1.306699058E+03	 3.339800000E+04
 1.307238341E+03	 3.354100000E+04
 1.307777567E+03	 3.338200000E+04
 1.308316738E+03	 3.343900000E+04
 1.308855853E+03	 3.339600000E+04
 1.309394912E+03	 3.344200000E+04
 1.309933915E+03	 3.325400000E+04
 1.310472862E+03	 3.360500000E+04
 1.311011753E+03	 3.303600000E+04
 1.311550588E+03	 3.341300000E+04
 1.312089367E+03	 3.321000000E+04
 1.312628090E+03	 3.322900000E+04
 1.313166758E+03	 3.303900000E+04
 1.313705370E+03	 3.305800000E+04
 1.314243925E+03	 3.325800000E+04
 1.314782425E+03	 3.314200000E+04
 1.315320869E+03	 3.291800000E+04
 1.315859257E+03	 3.320600000E+04
 1.316397589E+03	 3.288300000E+04
 1.316935866E+03	 3.304400000E+04
 1.317474086E+03	 3.291800000E+04
 1.318012251E+03	 3.306400000E+04
 1.318550360E+03	 3.287800000E+04
 1.319088413E+03	 3.287200000E+04
 1.319626410E+03	 3.294200000E+04
 1.320164351E+03	 3.283800000E+04
 1.320702236E+03	 3.310700000E+04
 1.321240066E+03	 3.289500000E+04
 1.321777839E+03	 3.279300000E+04
 1.322315557E+03	 3.288900000E+04
 1.322853219E+03	 3.267900000E+04
 1.323390826E+03	 3.261600000E+04
 1.323928376E+03	 3.287300000E+04
 1.324465871E+03	 3.258100000E+04
 1.325003309E+03	 3.267600000E+04
 1.325540692E+03	 3.253900000E+04
 1.326078020E+03	 3.258700000E+04
 1.326615291E+03	 3.248200000E+04
 1.327152506E+03	 3.274000000E+04
 1.327689666E+03	 3.221000000E+04
 1.328226770E+03	 3.268600000E+04
 1.328763818E+03	 3.249600000E+04
 1.329300811E+03	 3.261900000E+04
 1.329837747E+03	 3.244600000E+04
 1.330374628E+03	 3.245800000E+04
 1.330911453E+03	 3.239000000E+04
 1.331448222E+03	 3.242200000E+04
 1.331984936E+03	 3.242600000E+04
 1.332521594E+03	 3.248000000E+04
 1.333058196E+03	 3.240000000E+04
 1.333594742E+03	 3.233600000E+04
 1.334131232E+03	 3.233300000E+04
 1.334667667E+03	 3.212600000E+04
 1.335204046E+03	 3.227100000E+04
 1.335740369E+03	 3.208000000E+04
 1.336276637E+03	 3.231700000E+04
 1.336812848E+03	 3.228100000E+04
 1.337349004E+03	 3.255000000E+04
 1.337885105E+03	 3.244300000E+04
 1.338421149E+03	 3.207800000E+04
 1.338957138E+03	 3.220500000E+04
 1.339493071E+03	 3.215700000E+04
 1.340028949E+03	 3.207100000E+04
 1.340564770E+03	 3.182000000E+04
 1.341100536E+03	 3.209000000E+04
 1.341636246E+03	 3.220600000E+04
 1.342171901E+03	 3.220600000E+04
 1.342707500E+03	 3.198400000E+04
 1.343243043E+03	 3.203500000E+04
 1.343778530E+03	 3.178100000E+04
 1.344313962E+03	 3.201700000E+04
 1.344849338E+03	 3.193800000E+04
 1.345384659E+03	 3.174000000E+04
 1.345919923E+03	 3.182100000E+04
 1.346455133E+03	 3.181600000E+04
 1.346990286E+03	 3.163600000E+04
 1.347525384E+03	 3.190300000E+04
 1.348060426E+03	 3.159800000E+04
 1.348595412E+03	 3.187900000E+04
 1.349130343E+03	 3.184100000E+04
 1.349665218E+03	 3.191400000E+04
 1.350200037E+03	 3.189100000E+04
 1.350734801E+03	 3.164700000E+04
 1.351269509E+03	 3.159800000E+04
 1.351804162E+03	 3.161900000E+04
 1.352338758E+03	 3.169100000E+04
 1.352873300E+03	 3.147000000E+04
 1.353407785E+03	 3.145700000E+04
 1.353942215E+03	 3.121900000E+04
 1.354476589E+03	 3.154800000E+04
 1.355010908E+03	 3.145600000E+04
 1.355545171E+03	 3.133700000E+04
 1.356079379E+03	 3.131200000E+04
 1.356613530E+03	 3.162300000E+04
 1.357147627E+03	 3.132600000E+04
 1.357681667E+03	 3.136700000E+04
 1.358215652E+03	 3.140100000E+04
 1.358749582E+03	 3.154700000E+04
 1.359283456E+03	 3.118700000E+04
 1.359817274E+03	 3.148700000E+04
 1.360351037E+03	 3.126800000E+04
 1.360884744E+03	 3.125100000E+04
 1.361418395E+03	 3.118000000E+04
 1.361951991E+03	 3.114900000E+04
 1.362485531E+03	 3.131800000E+04
 1.363019016E+03	 3.113500000E+04
 1.363552445E+03	 3.111100000E+04
 1.364085819E+03	 3.113400000E+04
 1.364619137E+03	 3.132800000E+04
 1.365152400E+03	 3.119900000E+04
 1.365685607E+03	 3.129100000E+04
 1.366218758E+03	 3.107800000E+04
 1.366751854E+03	 3.120600000E+04
 1.367284894E+03	 3.092500000E+04
 1.367817879E+03	 3.114900000E+04
 1.368350808E+03	 3.097800000E+04
 1.368883682E+03	 3.119000000E+04
 1.369416500E+03	 3.094600000E+04
 1.369949263E+03	 3.110700000E+04
 1.370481970E+03	 3.094500000E+04
 1.371014622E+03	 3.101800000E+04
 1.371547218E+03	 3.096900000E+04
 1.372079758E+03	 3.083200000E+04
 1.372612244E+03	 3.065000000E+04
 1.373144673E+03	 3.072200000E+04
 1.373677047E+03	 3.084000000E+04
 1.374209366E+03	 3.024500000E+04
 1.374741629E+03	 3.080500000E+04
 1.375273836E+03	 3.068700000E+04
 1.375805989E+03	 3.091900000E+04
 1.376338085E+03	 3.058800000E+04
 1.376870126E+03	 3.079400000E+04
 1.377402112E+03	 3.051900000E+04
 1.377934042E+03	 3.087000000E+04
 1.378465917E+03	 3.043500000E+04
 1.378997736E+03	 3.072700000E+04
 1.379529500E+03	 3.063800000E+04
 1.380061208E+03	 3.064300000E+04
 1.380592861E+03	 3.058100000E+04
 1.381124459E+03	 3.064500000E+04
 1.381656000E+03	 3.065400000E+04
 1.382187487E+03	 3.036500000E+04
 1.382718918E+03	 3.059900000E+04
 1.383250294E+03	 3.047600000E+04
 1.383781614E+03	 3.055000000E+04
 1.384312879E+03	 3.027600000E+04
 1.384844088E+03	 3.058700000E+04
 1.385375242E+03	 3.041400000E+04
 1.385906340E+03	 3.047300000E+04
 1.386437383E+03	 3.017200000E+04
 1.386968371E+03	 3.065800000E+04
 1.387499303E+03	 3.039500000E+04
 1.388030180E+03	 3.049500000E+04
 1.388561001E+03	 3.044900000E+04
 1.389091767E+03	 3.034200000E+04
 1.389622478E+03	 3.028000000E+04
 1.390153133E+03	 3.034700000E+04
 1.390683733E+03	 3.037700000E+04
 1.391214277E+03	 3.035000000E+04
 1.391744766E+03	 3.006500000E+04
 1.392275200E+03	 3.026400000E+04
 1.392805578E+03	 3.044000000E+04
 1.393335901E+03	 3.014300000E+04
 1.393866168E+03	 3.026300000E+04
 1.394396381E+03	 3.000200000E+04
 1.394926537E+03	 3.029400000E+04
 1.395456639E+03	 2.976800000E+04
 1.395986685E+03	 3.026300000E+04
 1.396516675E+03	 3.000100000E+04
 1.397046611E+03	 3.021300000E+04
 1.397576491E+03	 3.011700000E+04
 1.398106315E+03	 3.006100000E+04
 1.398636084E+03	 2.998900000E+04
 1.399165798E+03	 3.017200000E+04
 1.399695457E+03	 3.004900000E+04
 1.400225060E+03	 3.017600000E+04
 1.400754608E+03	 3.021100000E+04
 1.401284101E+03	 2.967200000E+04
 1.401813538E+03	 3.014500000E+04
 1.402342920E+03	 2.999100000E+04
 1.402872247E+03	 2.999000000E+04
 1.403401518E+03	 2.988800000E+04
 1.403930734E+03	 3.001300000E+04
 1.404459895E+03	 2.984100000E+04
 1.404989000E+03	 2.996600000E+04
 1.405518050E+03	 2.987600000E+04
 1.406047045E+03	 2.982900000E+04
 1.406575984E+03	 2.974000000E+04
 1.407104869E+03	 2.979400000E+04
 1.407633697E+03	 2.985000000E+04
 1.408162471E+03	 2.989400000E+04
 1.408691189E+03	 2.989500000E+04
 1.409219852E+03	 2.976800000E+04
 1.409748460E+03	 2.975600000E+04
 1.410277013E+03	 2.961200000E+04
 1.410805510E+03	 2.970500000E+04
 1.411333952E+03	 2.957300000E+04
 1.411862339E+03	 2.972900000E+04
 1.412390670E+03	 2.962600000E+04
 1.412918946E+03	 2.942000000E+04
 1.413447167E+03	 2.958500000E+04
 1.413975333E+03	 2.983500000E+04
 1.414503444E+03	 2.980400000E+04
 1.415031499E+03	 2.962100000E+04
 1.415559499E+03	 2.936200000E+04
 1.416087444E+03	 2.960700000E+04
 1.416615333E+03	 2.959100000E+04
 1.417143167E+03	 2.951500000E+04
 1.417670947E+03	 2.963200000E+04
 1.418198670E+03	 2.935000000E+04
 1.418726339E+03	 2.955700000E+04
 1.419253952E+03	 2.939500000E+04
 1.419781511E+03	 2.973500000E+04
 1.420309014E+03	 2.952200000E+04
 1.420836461E+03	 2.958100000E+04
 1.421363854E+03	 2.962000000E+04
 1.421891191E+03	 2.969600000E+04
 1.422418474E+03	 2.947300000E+04
 1.422945701E+03	 2.948800000E+04
 1.423472872E+03	 2.952300000E+04
 1.423999989E+03	 2.929700000E+04
 1.424527050E+03	 2.956900000E+04
 1.425054057E+03	 2.961500000E+04
 1.425581008E+03	 2.939300000E+04
 1.426107904E+03	 2.935200000E+04
 1.426634745E+03	 2.949800000E+04
 1.427161530E+03	 2.938000000E+04
 1.427688261E+03	 2.937400000E+04
 1.428214936E+03	 2.955600000E+04
 1.428741556E+03	 2.939900000E+04
 1.429268121E+03	 2.931300000E+04
 1.429794631E+03	 2.937400000E+04
 1.430321085E+03	 2.914100000E+04
 1.430847485E+03	 2.929600000E+04
 1.431373829E+03	 2.927100000E+04
 1.431900118E+03	 2.930000000E+04
 1.432426353E+03	 2.934900000E+04
 1.432952532E+03	 2.919100000E+04
 1.433478655E+03	 2.921000000E+04
 1.434004724E+03	 2.915100000E+04
 1.434530738E+03	 2.934700000E+04
 1.435056696E+03	 2.915700000E+04
 1.435582600E+03	 2.909700000E+04
 1.436108448E+03	 2.910200000E+04
 1.436634241E+03	 2.890600000E+04
 1.437159979E+03	 2.906300000E+04
 1.437685662E+03	 2.898100000E+04
 1.438211290E+03	 2.879200000E+04
 1.438736863E+03	 2.898200000E+04
 1.439262381E+03	 2.898700000E+04
 1.439787843E+03	 2.883000000E+04
 1.440313251E+03	 2.890900000E+04
 1.440838603E+03	 2.878100000E+04
 1.441363900E+03	 2.893900000E+04
 1.441889143E+03	 2.877600000E+04
 1.442414330E+03	 2.881000000E+04
 1.442939462E+03	 2.866200000E+04
 1.443464539E+03	 2.889900000E+04
 1.443989561E+03	 2.887300000E+04
 1.444514528E+03	 2.865700000E+04
 1.445039440E+03	 2.862700000E+04
 1.445564297E+03	 2.861900000E+04
 1.446089099E+03	 2.868400000E+04
 1.446613846E+03	 2.882700000E+04
 1.447138537E+03	 2.875600000E+04
 1.447663174E+03	 2.886900000E+04
 1.448187756E+03	 2.868800000E+04
 1.448712282E+03	 2.859100000E+04
 1.449236754E+03	 2.845300000E+04
 1.449761171E+03	 2.863600000E+04
 1.450285532E+03	 2.848100000E+04
 1.450809839E+03	 2.865400000E+04
 1.451334090E+03	 2.862400000E+04
 1.451858287E+03	 2.841400000E+04
 1.452382428E+03	 2.838300000E+04
 1.452906515E+03	 2.837800000E+04
 1.453430546E+03	 2.847500000E+04
 1.453954523E+03	 2.836400000E+04
 1.454478444E+03	 2.859800000E+04
 1.455002311E+03	 2.839300000E+04
 1.455526123E+03	 2.852900000E+04
 1.456049879E+03	 2.818000000E+04
 1.456573581E+03	 2.853700000E+04
 1.457097227E+03	 2.836400000E+04
 1.457620819E+03	 2.835500000E+04
 1.458144356E+03	 2.820400000E+04
 1.458667837E+03	 2.838500000E+04
 1.459191264E+03	 2.821600000E+04
 1.459714636E+03	 2.838800000E+04
 1.460237952E+03	 2.828800000E+04
 1.460761214E+03	 2.830900000E+04
 1.461284421E+03	 2.833600000E+04
 1.461807573E+03	 2.824000000E+04
 1.462330670E+03	 2.818200000E+04
 1.462853712E+03	 2.814800000E+04
 1.463376699E+03	 2.821200000E+04
 1.463899632E+03	 2.830400000E+04
 1.464422509E+03	 2.827600000E+04
 1.464945331E+03	 2.818200000E+04
 1.465468099E+03	 2.817800000E+04
 1.465990811E+03	 2.826300000E+04
 1.466513469E+03	 2.814600000E+04
 1.467036071E+03	 2.800200000E+04
 1.467558619E+03	 2.813000000E+04
 1.468081112E+03	 2.837000000E+04
 1.468603550E+03	 2.802300000E+04
 1.469125933E+03	 2.807200000E+04
 1.469648261E+03	 2.804500000E+04
 1.470170534E+03	 2.804500000E+04
 1.470692752E+03	 2.772500000E+04
 1.471214916E+03	 2.816600000E+04
 1.471737024E+03	 2.776700000E+04
 1.472259078E+03	 2.798400000E+04
 1.472781077E+03	 2.785400000E+04
 1.473303021E+03	 2.792100000E+04
 1.473824910E+03	 2.779500000E+04
 1.474346744E+03	 2.781000000E+04
 1.474868523E+03	 2.777100000E+04
 1.475390248E+03	 2.768200000E+04
 1.475911917E+03	 2.774400000E+04
 1.476433532E+03	 2.771200000E+04
 1.476955092E+03	 2.766200000E+04
 1.477476597E+03	 2.751800000E+04
 1.477998047E+03	 2.783600000E+04
 1.478519442E+03	 2.767900000E+04
 1.479040783E+03	 2.780300000E+04
 1.479562068E+03	 2.765500000E+04
 1.480083299E+03	 2.779500000E+04
 1.480604475E+03	 2.768300000E+04
 1.481125596E+03	 2.782100000E+04
 1.481646663E+03	 2.753100000E+04
 1.482167674E+03	 2.752000000E+04
 1.482688631E+03	 2.765600000E+04
 1.483209533E+03	 2.749500000E+04
 1.483730380E+03	 2.754100000E+04
 1.484251172E+03	 2.731200000E+04
 1.484771909E+03	 2.733000000E+04
 1.485292592E+03	 2.732100000E+04
 1.485813220E+03	 2.738000000E+04
 1.486333793E+03	 2.727700000E+04
 1.486854311E+03	 2.751900000E+04
 1.487374775E+03	 2.743800000E+04
 1.487895183E+03	 2.753900000E+04
 1.488415537E+03	 2.738900000E+04
 1.488935836E+03	 2.732300000E+04
 1.489456081E+03	 2.736200000E+04
 1.489976270E+03	 2.698600000E+04
 1.490496405E+03	 2.722600000E+04
 1.491016485E+03	 2.734700000E+04
 1.491536511E+03	 2.733200000E+04
 1.492056481E+03	 2.717600000E+04
 1.492576397E+03	 2.705100000E+04
 1.493096258E+03	 2.716800000E+04
 1.493616064E+03	 2.713800000E+04
 1.494135816E+03	 2.711000000E+04
 1.494655513E+03	 2.706700000E+04
 1.495175155E+03	 2.711300000E+04
 1.495694742E+03	 2.680300000E+04
 1.496214274E+03	 2.710400000E+04
 1.496733752E+03	 2.702500000E+04
 1.497253175E+03	 2.701600000E+04
 1.497772544E+03	 2.698400000E+04
 1.498291858E+03	 2.692200000E+04
 1.498811116E+03	 2.705100000E+04
 1.499330321E+03	 2.705900000E+04
 1.499849470E+03	 2.690600000E+04
 1.500368565E+03	 2.659400000E+04
 1.500887605E+03	 2.687600000E+04
 1.501406591E+03	 2.704300000E+04
 1.501925521E+03	 2.685900000E+04
 1.502444397E+03	 2.690100000E+04
 1.502963219E+03	 2.684200000E+04
 1.503481985E+03	 2.709200000E+04
 1.504000697E+03	 2.680000000E+04
 1.504519355E+03	 2.677700000E+04
 1.505037957E+03	 2.693400000E+04
 1.505556505E+03	 2.676400000E+04
 1.506074999E+03	 2.677100000E+04
 1.506593437E+03	 2.662400000E+04
 1.507111821E+03	 2.666800000E+04
 1.507630150E+03	 2.642800000E+04
 1.508148425E+03	 2.663600000E+04
 1.508666645E+03	 2.674400000E+04
 1.509184810E+03	 2.665100000E+04
 1.509702921E+03	 2.658800000E+04
 1.510220977E+03	 2.654600000E+04
 1.510738979E+03	 2.666200000E+04
 1.511256925E+03	 2.654000000E+04
 1.511774817E+03	 2.653700000E+04
 1.512292655E+03	 2.631200000E+04
 1.512810438E+03	 2.647500000E+04
 1.513328166E+03	 2.629500000E+04
 1.513845840E+03	 2.643200000E+04
 1.514363459E+03	 2.669500000E+04
 1.514881023E+03	 2.654100000E+04
 1.515398533E+03	 2.652400000E+04
 1.515915988E+03	 2.651000000E+04
 1.516433389E+03	 2.663000000E+04
 1.516950734E+03	 2.647100000E+04
 1.517468026E+03	 2.648500000E+04
 1.517985263E+03	 2.638100000E+04
 1.518502445E+03	 2.649100000E+04
 1.519019572E+03	 2.629100000E+04
 1.519536645E+03	 2.639300000E+04
 1.520053664E+03	 2.636500000E+04
 1.520570628E+03	 2.636400000E+04
 1.521087537E+03	 2.622600000E+04
 1.521604392E+03	 2.655300000E+04
 1.522121192E+03	 2.623200000E+04
 1.522637937E+03	 2.661500000E+04
 1.523154628E+03	 2.630100000E+04
 1.523671265E+03	 2.627800000E+04
 1.524187847E+03	 2.641300000E+04
 1.524704374E+03	 2.635500000E+04
 1.525220847E+03	 2.622000000E+04
 1.525737265E+03	 2.615300000E+04
 1.526253629E+03	 2.626600000E+04
 1.526769938E+03	 2.622400000E+04
 1.527286192E+03	 2.637900000E+04
 1.527802392E+03	 2.628800000E+04
 1.528318538E+03	 2.640700000E+04
 1.528834629E+03	 2.612100000E+04
 1.529350666E+03	 2.624900000E+04
 1.529866648E+03	 2.634300000E+04
 1.530382575E+03	 2.608800000E+04
 1.530898448E+03	 2.614700000E+04
 1.531414266E+03	 2.629100000E+04
 1.531930030E+03	 2.624200000E+04
 1.532445740E+03	 2.614400000E+04
 1.532961395E+03	 2.604000000E+04
 1.533476995E+03	 2.620400000E+04
 1.533992541E+03	 2.613600000E+04
 1.534508033E+03	 2.631400000E+04
 1.535023470E+03	 2.598400000E+04
 1.535538852E+03	 2.600500000E+04
 1.536054180E+03	 2.607800000E+04
 1.536569454E+03	 2.610200000E+04
 1.537084673E+03	 2.591700000E+04
 1.537599837E+03	 2.623000000E+04
 1.538114947E+03	 2.595600000E+04
 1.538630003E+03	 2.613700000E+04
 1.539145004E+03	 2.622200000E+04
 1.539659951E+03	 2.592000000E+04
 1.540174843E+03	 2.600100000E+04
 1.540689681E+03	 2.597500000E+04
 1.541204465E+03	 2.605000000E+04
 1.541719194E+03	 2.620200000E+04
 1.542233868E+03	 2.596300000E+04
 1.542748488E+03	 2.591000000E+04
 1.543263054E+03	 2.630400000E+04
 1.543777565E+03	 2.596300000E+04
 1.544292022E+03	 2.613900000E+04
 1.544806424E+03	 2.601100000E+04
 1.545320772E+03	 2.582000000E+04
 1.545835066E+03	 2.588700000E+04
 1.546349305E+03	 2.581000000E+04
 1.546863489E+03	 2.604800000E+04
 1.547377620E+03	 2.576800000E+04
 1.547891696E+03	 2.596100000E+04
 1.548405717E+03	 2.579500000E+04
 1.548919684E+03	 2.595100000E+04
 1.549433597E+03	 2.588100000E+04
 1.549947455E+03	 2.585800000E+04
 1.550461259E+03	 2.582700000E+04
 1.550975009E+03	 2.584900000E+04
 1.551488704E+03	 2.594900000E+04
 1.552002345E+03	 2.578500000E+04
 1.552515931E+03	 2.590900000E+04
 1.553029463E+03	 2.587500000E+04
 1.553542941E+03	 2.579200000E+04
 1.554056364E+03	 2.579300000E+04
 1.554569733E+03	 2.590500000E+04
 1.555083048E+03	 2.567200000E+04
 1.555596308E+03	 2.599300000E+04
 1.556109514E+03	 2.572500000E+04
 1.556622665E+03	 2.576100000E+04
 1.557135762E+03	 2.562900000E+04
 1.557648805E+03	 2.577900000E+04
 1.558161794E+03	 2.585200000E+04
 1.558674728E+03	 2.554800000E+04
 1.559187608E+03	 2.579000000E+04
 1.559700433E+03	 2.562600000E+04
 1.560213205E+03	 2.578600000E+04
 1.560725921E+03	 2.572300000E+04
 1.561238584E+03	 2.582200000E+04
 1.561751192E+03	 2.550500000E+04
 1.562263746E+03	 2.573400000E+04
 1.562776246E+03	 2.567700000E+04
 1.563288691E+03	 2.563300000E+04
 1.563801082E+03	 2.552800000E+04
 1.564313419E+03	 2.545900000E+04
 1.564825701E+03	 2.551200000E+04
 1.565337929E+03	 2.545700000E+04
 1.565850103E+03	 2.568200000E+04
 1.566362223E+03	 2.531000000E+04
 1.566874288E+03	 2.552200000E+04
 1.567386299E+03	 2.561600000E+04
 1.567898256E+03	 2.567300000E+04
 1.568410158E+03	 2.552800000E+04
 1.568922007E+03	 2.532900000E+04
 1.569433800E+03	 2.537100000E+04
 1.569945540E+03	 2.546900000E+04
 1.570457226E+03	 2.556500000E+04
 1.570968857E+03	 2.565700000E+04
 1.571480434E+03	 2.549300000E+04
 1.571991956E+03	 2.543600000E+04
 1.572503425E+03	 2.534700000E+04
 1.573014839E+03	 2.537500000E+04
 1.573526199E+03	 2.526900000E+04
 1.574037505E+03	 2.537700000E+04
 1.574548756E+03	 2.536200000E+04
 1.575059953E+03	 2.519400000E+04
 1.575571096E+03	 2.527200000E+04
 1.576082185E+03	 2.546500000E+04
 1.576593220E+03	 2.512500000E+04
 1.577104200E+03	 2.548800000E+04
 1.577615126E+03	 2.519600000E+04
 1.578125998E+03	 2.525900000E+04
 1.578636816E+03	 2.519900000E+04
 1.579147580E+03	 2.509400000E+04
 1.579658289E+03	 2.513500000E+04
 1.580168944E+03	 2.500600000E+04
 1.580679545E+03	 2.526200000E+04
 1.581190092E+03	 2.519300000E+04
 1.581700585E+03	 2.514300000E+04
 1.582211023E+03	 2.505900000E+04
 1.582721407E+03	 2.528200000E+04
 1.583231737E+03	 2.506200000E+04
 1.583742013E+03	 2.516800000E+04
 1.584252235E+03	 2.510000000E+04
 1.584762403E+03	 2.500100000E+04
 1.585272516E+03	 2.503800000E+04
 1.585782575E+03	 2.517100000E+04
 1.586292581E+03	 2.511600000E+04
 1.586802532E+03	 2.472600000E+04
 1.587312428E+03	 2.526200000E+04
 1.587822271E+03	 2.507400000E+04
 1.588332060E+03	 2.526400000E+04
 1.588841794E+03	 2.499500000E+04
 1.589351474E+03	 2.499500000E+04
 1.589861100E+03	 2.508700000E+04
 1.590370672E+03	 2.495400000E+04
 1.590880190E+03	 2.489300000E+04
 1.591389654E+03	 2.488200000E+04
 1.591899064E+03	 2.491500000E+04
 1.592408419E+03	 2.493900000E+04
