1043.018714	1380.400024
1043.585098	1395.0
1044.151424	1394.400024
1044.717692	1390.599976
1045.283903	1393.0
1045.850056	1371.0
1046.416151	1394.599976
1046.982188	1394.400024
1047.548167	1390.400024
1048.114089	1397.199951
1048.679953	1383.0
1049.24576	1379.199951
1049.811509	1383.800049
1050.3772	1383.400024
1050.942833	1382.800049
1051.508408	1384.400024
1052.073926	1391.800049
1052.639387	1380.400024
1053.204789	1377.199951
1053.770134	1372.199951
1054.335421	1390.599976
1054.900651	1383.0
1055.465823	1384.400024
1056.030937	1371.199951
1056.595993	1378.0
1057.160992	1374.599976
1057.725934	1377.800049
1058.290817	1371.400024
1058.855643	1376.800049
1059.420411	1376.400024
1059.985122	1363.199951
1060.549775	1374.400024
1061.114371	1369.599976
1061.678908	1365.800049
1062.243389	1363.599976
1062.807811	1363.199951
1063.372176	1373.0
1063.936483	1360.400024
1064.500733	1355.599976
1065.064925	1373.400024
1065.62906	1375.599976
1066.193137	1367.199951
1066.757156	1375.800049
1067.321118	1373.800049
1067.885022	1366.199951
1068.448869	1351.599976
1069.012658	1372.599976
1069.57639	1363.599976
1070.140063	1365.0
1070.70368	1353.800049
1071.267239	1364.0
1071.83074	1364.800049
1072.394184	1374.199951
1072.95757	1371.800049
1073.520899	1360.800049
1074.08417	1365.199951
1074.647383	1371.0
1075.21054	1356.199951
1075.773638	1352.800049
1076.336679	1360.0
1076.899663	1375.599976
1077.462589	1374.0
1078.025457	1367.800049
1078.588268	1351.800049
1079.151022	1354.199951
1079.713718	1345.199951
1080.276356	1367.0
1080.838937	1346.400024
1081.401461	1361.199951
1081.963927	1344.0
1082.526336	1347.800049
1083.088687	1355.599976
1083.650981	1344.0
1084.213217	1340.0
1084.775396	1348.400024
1085.337517	1344.800049
1085.899581	1348.599976
1086.461587	1355.199951
1087.023536	1339.599976
1087.585428	1368.800049
1088.147262	1346.800049
1088.709039	1333.199951
1089.270758	1333.0
1089.83242	1350.800049
1090.394024	1347.0
1090.955571	1340.0
1091.517061	1339.0
1092.078493	1338.199951
1092.639868	1338.800049
1093.201185	1347.199951
1093.762445	1343.0
1094.323648	1320.800049
1094.884793	1336.199951
1095.445881	1332.199951
1096.006911	1336.0
1096.567884	1342.800049
1097.1288	1332.199951
1097.689659	1327.800049
1098.25046	1323.400024
1098.811203	1330.599976
1099.37189	1314.400024
1099.932518	1337.400024
1100.49309	1326.800049
1101.053604	1329.599976
1101.614061	1327.0
1102.174461	1318.199951
1102.734803	1335.199951
1103.295088	1328.599976
1103.855316	1320.400024
1104.415486	1319.199951
1104.975599	1322.800049
1105.535655	1318.599976
1106.095653	1317.599976
1106.655594	1309.599976
1107.215478	1319.599976
1107.775305	1321.800049
1108.335074	1306.199951
1108.894786	1323.0
1109.45444	1306.400024
1110.014038	1312.0
1110.573578	1307.400024
1111.133061	1310.800049
1111.692486	1300.400024
1112.251854	1307.599976
1112.811165	1318.0
1113.370419	1301.0
1113.929616	1307.0
1114.488755	1309.800049
1115.047837	1323.599976
1115.606862	1304.400024
1116.16583	1306.800049
1116.72474	1298.400024
1117.283593	1317.599976
1117.842389	1307.0
1118.401128	1320.199951
1118.959809	1292.800049
1119.518433	1293.800049
1120.077	1294.400024
1120.63551	1292.800049
1121.193963	1296.400024
1121.752358	1299.599976
1122.310697	1302.599976
1122.868978	1309.0
1123.427202	1306.0
1123.985368	1318.199951
1124.543478	1291.400024
1125.10153	1300.0
1125.659526	1298.800049
1126.217464	1305.199951
1126.775345	1300.199951
1127.333168	1295.599976
1127.890935	1302.0
1128.448644	1306.800049
1129.006297	1298.400024
1129.563892	1296.599976
1130.12143	1297.0
1130.678911	1296.0
1131.236335	1307.400024
1131.793701	1278.599976
1132.351011	1279.199951
1132.908263	1308.0
1133.465458	1298.599976
1134.022597	1302.199951
1134.579678	1278.400024
1135.136702	1295.400024
1135.693669	1290.199951
1136.250578	1285.599976
1136.807431	1282.400024
1137.364227	1279.800049
1137.920965	1292.599976
1138.477647	1297.0
1139.034271	1286.800049
1139.590839	1292.0
1140.147349	1291.400024
1140.703802	1303.199951
1141.260198	1295.400024
1141.816537	1295.599976
1142.37282	1295.199951
1142.929045	1275.599976
1143.485213	1300.0
1144.041323	1288.400024
1144.597377	1296.400024
1145.153374	1283.0
1145.709314	1288.0
1146.265197	1288.599976
1146.821023	1288.400024
1147.376792	1288.0
1147.932503	1301.800049
1148.488158	1286.400024
1149.043756	1297.199951
1149.599297	1280.400024
1150.154781	1298.800049
1150.710207	1278.0
1151.265577	1286.199951
1151.82089	1302.199951
1152.376146	1294.800049
1152.931345	1288.400024
1153.486487	1274.400024
1154.041572	1290.599976
1154.5966	1288.199951
1155.151571	1290.199951
1155.706485	1275.0
1156.261342	1292.400024
1156.816142	1295.199951
1157.370885	1288.599976
1157.925572	1290.599976
1158.480201	1293.800049
1159.034774	1275.199951
1159.589289	1283.400024
1160.143748	1282.800049
1160.698149	1280.199951
1161.252494	1264.199951
1161.806782	1282.800049
1162.361013	1286.199951
1162.915187	1279.800049
1163.469304	1273.0
1164.023364	1286.400024
1164.577368	1275.199951
1165.131314	1274.400024
1165.685204	1270.599976
1166.239036	1274.800049
1166.792812	1280.400024
1167.346531	1276.0
1167.900193	1268.400024
1168.453798	1278.199951
1169.007347	1282.0
1169.560838	1272.400024
1170.114273	1270.199951
1170.66765	1272.400024
1171.220971	1275.199951
1171.774235	1266.199951
1172.327443	1274.0
1172.880593	1270.0
1173.433687	1274.800049
1173.986723	1275.800049
1174.539703	1281.199951
1175.092626	1264.599976
1175.645493	1263.199951
1176.198302	1267.199951
1176.751055	1277.800049
1177.303751	1289.800049
1177.85639	1275.599976
1178.408972	1267.400024
1178.961498	1268.199951
1179.513966	1263.199951
1180.066378	1256.199951
1180.618733	1273.199951
1181.171032	1261.199951
1181.723273	1275.400024
1182.275458	1265.199951
1182.827586	1257.0
1183.379657	1270.199951
1183.931672	1265.800049
1184.48363	1263.599976
1185.035531	1263.400024
1185.587375	1265.0
1186.139162	1268.0
1186.690893	1269.599976
1187.242567	1261.0
1187.794184	1266.0
1188.345745	1269.800049
1188.897249	1268.599976
1189.448696	1269.800049
1190.000086	1264.199951
1190.55142	1262.599976
1191.102697	1256.0
1191.653918	1250.599976
1192.205081	1260.199951
1192.756188	1263.800049
1193.307238	1276.199951
1193.858232	1266.0
1194.409169	1259.199951
1194.960049	1245.400024
1195.510872	1249.199951
1196.061639	1270.199951
1196.612349	1254.0
1197.163003	1248.599976
1197.713599	1256.599976
1198.264139	1262.599976
1198.814623	1254.400024
1199.36505	1261.599976
1199.91542	1251.400024
1200.465734	1246.199951
1201.01599	1256.199951
1201.566191	1252.0
1202.116334	1262.800049
1202.666421	1247.800049
1203.216452	1241.0
1203.766425	1248.800049
1204.316343	1248.0
1204.866203	1247.800049
1205.416007	1243.199951
1205.965754	1237.599976
1206.515445	1246.199951
1207.065079	1251.199951
1207.614657	1245.0
1208.164177	1247.599976
1208.713642	1230.400024
1209.26305	1252.599976
1209.812401	1245.199951
1210.361695	1258.400024
1210.910933	1244.800049
1211.460115	1247.800049
1212.00924	1251.599976
1212.558308	1245.800049
1213.10732	1243.199951
1213.656275	1239.0
1214.205174	1244.0
1214.754016	1241.599976
1215.302801	1236.400024
1215.85153	1244.800049
1216.400203	1239.400024
1216.948819	1241.800049
1217.497378	1245.199951
1218.045881	1241.800049
1218.594327	1238.800049
1219.142717	1245.400024
1219.691051	1243.599976
1220.239327	1234.599976
1220.787548	1236.199951
1221.335712	1237.400024
1221.883819	1242.800049
1222.43187	1233.0
1222.979864	1238.199951
1223.527802	1240.400024
1224.075683	1246.400024
1224.623508	1228.599976
1225.171277	1232.800049
1225.718989	1243.599976
1226.266644	1235.800049
1226.814243	1244.599976
1227.361786	1233.599976
1227.909272	1227.800049
1228.456702	1236.0
1229.004075	1230.0
1229.551392	1229.199951
1230.098652	1241.199951
1230.645856	1231.599976
1231.193003	1232.400024
1231.740094	1221.0
1232.287129	1228.0
1232.834107	1232.800049
1233.381029	1234.0
1233.927894	1228.599976
1234.474703	1238.199951
1235.021455	1238.199951
1235.568151	1224.800049
1236.114791	1232.599976
1236.661374	1237.400024
1237.207901	1238.0
1237.754372	1226.599976
1238.300786	1224.800049
1238.847144	1227.0
1239.393445	1230.599976
1239.93969	1237.800049
1240.485879	1225.0
1241.032011	1225.599976
1241.578087	1229.0
1242.124106	1225.800049
1242.67007	1217.199951
1243.215976	1209.400024
1243.761827	1233.800049
1244.307621	1208.0
1244.853359	1232.800049
1245.39904	1224.400024
1245.944665	1230.599976
1246.490234	1226.400024
1247.035746	1228.599976
1247.581203	1217.800049
1248.126602	1214.400024
1248.671946	1225.800049
1249.217233	1221.599976
1249.762464	1225.400024
1250.307638	1227.199951
1250.852757	1220.0
1251.397819	1211.800049
1251.942824	1223.599976
1252.487774	1224.800049
1253.032667	1230.599976
1253.577503	1235.0
1254.122284	1219.800049
1254.667008	1215.400024
1255.211676	1217.599976
1255.756288	1221.800049
1256.300843	1214.400024
1256.845342	1230.599976
1257.389785	1210.0
1257.934172	1204.199951
1258.478502	1224.800049
1259.022776	1217.800049
1259.566994	1216.599976
1260.111156	1213.800049
1260.655261	1215.199951
1261.199311	1205.0
1261.743304	1212.0
1262.28724	1220.400024
1262.831121	1216.599976
1263.374945	1222.599976
1263.918713	1223.599976
1264.462425	1245.599976
1265.006081	1255.599976
1265.54968	1245.599976
1266.093223	1227.199951
1266.636711	1220.0
1267.180141	1232.199951
1267.723516	1210.0
1268.266835	1224.800049
1268.810097	1222.400024
1269.353303	1214.199951
1269.896453	1215.400024
1270.439547	1214.0
1270.982584	1202.599976
1271.525566	1214.599976
1272.068491	1206.599976
1272.61136	1217.400024
1273.154173	1213.599976
1273.69693	1194.800049
1274.239631	1215.800049
1274.782275	1208.199951
1275.324864	1218.800049
1275.867396	1210.199951
1276.409872	1206.199951
1276.952292	1219.199951
1277.494656	1198.599976
1278.036964	1213.400024
1278.579215	1204.800049
1279.121411	1198.199951
1279.66355	1202.599976
1280.205634	1204.199951
1280.747661	1209.400024
1281.289632	1201.599976
1281.831547	1206.199951
1282.373406	1217.599976
1282.915209	1221.800049
1283.456955	1234.400024
1283.998646	1273.800049
1284.540281	1391.0
1285.081859	1746.199951
1285.623381	1899.199951
1286.164848	1451.400024
1286.706258	1280.199951
1287.247612	1223.400024
1287.788911	1210.199951
1288.330153	1195.400024
1288.871339	1202.599976
1289.412469	1202.800049
1289.953543	1203.199951
1290.494561	1203.0
1291.035523	1207.599976
1291.576428	1190.599976
1292.117278	1193.800049
1292.658072	1205.400024
1293.19881	1199.199951
1293.739492	1179.0
1294.280118	1186.199951
1294.820687	1188.400024
1295.361201	1191.800049
1295.901659	1188.0
1296.442061	1193.800049
1296.982406	1185.400024
1297.522696	1181.800049
1298.06293	1199.0
1298.603108	1192.400024
1299.143229	1187.199951
1299.683295	1191.0
1300.223305	1193.800049
1300.763259	1190.599976
1301.303157	1188.400024
1301.842999	1185.599976
1302.382785	1182.599976
1302.922515	1194.800049
1303.462189	1191.0
1304.001807	1177.199951
1304.541369	1187.800049
1305.080875	1177.199951
1305.620326	1196.0
1306.15972	1188.599976
1306.699058	1171.0
1307.238341	1181.400024
1307.777567	1190.199951
1308.316738	1173.199951
1308.855853	1178.400024
1309.394912	1180.199951
1309.933915	1197.400024
1310.472862	1177.400024
1311.011753	1184.0
1311.550588	1169.199951
1312.089367	1185.0
1312.62809	1189.199951
1313.166758	1181.199951
1313.70537	1183.0
1314.243925	1181.199951
1314.782425	1189.800049
1315.320869	1182.199951
1315.859257	1178.0
1316.397589	1184.400024
1316.935866	1175.800049
1317.474086	1175.599976
1318.012251	1179.800049
1318.55036	1170.199951
1319.088413	1181.199951
1319.62641	1187.199951
1320.164351	1177.800049
1320.702236	1168.199951
1321.240066	1171.199951
1321.777839	1181.599976
1322.315557	1190.800049
1322.853219	1176.199951
1323.390826	1160.199951
1323.928376	1173.800049
1324.465871	1172.800049
1325.003309	1171.400024
1325.540692	1165.0
1326.07802	1173.599976
1326.615291	1172.599976
1327.152506	1164.0
1327.689666	1162.0
1328.22677	1174.0
1328.763818	1174.0
1329.300811	1182.0
1329.837747	1176.800049
1330.374628	1172.599976
1330.911453	1169.800049
1331.448222	1168.0
1331.984936	1180.199951
1332.521594	1152.199951
1333.058196	1164.800049
1333.594742	1174.800049
1334.131232	1170.199951
1334.667667	1164.0
1335.204046	1150.0
1335.740369	1165.599976
1336.276637	1163.800049
1336.812848	1165.400024
1337.349004	1164.0
1337.885105	1154.199951
1338.421149	1164.800049
1338.957138	1165.400024
1339.493071	1170.0
1340.028949	1162.599976
1340.56477	1169.199951
1341.100536	1161.199951
1341.636246	1166.800049
1342.171901	1166.0
1342.7075	1155.800049
1343.243043	1168.800049
1343.77853	1167.599976
1344.313962	1163.400024
1344.849338	1155.199951
1345.384659	1156.0
1345.919923	1153.199951
1346.455133	1168.199951
1346.990286	1162.0
1347.525384	1161.0
1348.060426	1158.0
1348.595412	1159.199951
1349.130343	1163.0
1349.665218	1175.199951
1350.200037	1153.199951
1350.734801	1159.800049
1351.269509	1150.0
1351.804162	1160.599976
1352.338758	1147.0
1352.8733	1156.0
1353.407785	1151.800049
1353.942215	1152.599976
1354.476589	1150.599976
1355.010908	1152.800049
1355.545171	1156.199951
1356.079379	1145.0
1356.61353	1160.599976
1357.147627	1140.0
1357.681667	1156.199951
1358.215652	1149.400024
1358.749582	1156.800049
1359.283456	1148.599976
1359.817274	1143.400024
1360.351037	1148.400024
1360.884744	1149.0
1361.418395	1139.199951
1361.951991	1150.400024
1362.485531	1151.599976
1363.019016	1154.800049
1363.552445	1151.599976
1364.085819	1140.599976
1364.619137	1150.199951
1365.1524	1145.599976
1365.685607	1152.599976
1366.218758	1152.199951
1366.751854	1156.599976
1367.284894	1148.599976
1367.817879	1153.400024
1368.350808	1151.199951
1368.883682	1148.400024
1369.4165	1158.800049
1369.949263	1157.400024
1370.48197	1175.800049
1371.014622	1154.199951
1371.547218	1149.0
1372.079758	1142.599976
1372.612244	1137.800049
1373.144673	1148.0
1373.677047	1148.199951
1374.209366	1151.400024
1374.741629	1154.0
1375.273836	1134.199951
1375.805989	1150.599976
1376.338085	1147.800049
1376.870126	1152.400024
1377.402112	1145.800049
1377.934042	1144.599976
1378.465917	1143.400024
1378.997736	1148.800049
1379.5295	1136.400024
1380.061208	1150.599976
1380.592861	1148.400024
1381.124459	1140.599976
1381.656	1146.800049
1382.187487	1146.599976
1382.718918	1143.199951
1383.250294	1147.199951
1383.781614	1136.199951
1384.312879	1143.199951
1384.844088	1145.400024
1385.375242	1154.0
1385.90634	1158.800049
1386.437383	1163.199951
1386.968371	1178.199951
1387.499303	1226.800049
1388.03018	1492.0
1388.561001	2276.399902
1389.091767	2089.800049
1389.622478	1369.800049
1390.153133	1203.0
1390.683733	1170.599976
1391.214277	1144.199951
1391.744766	1155.199951
1392.2752	1133.800049
1392.805578	1144.400024
1393.335901	1144.0
1393.866168	1150.599976
1394.396381	1133.0
1394.926537	1148.800049
1395.456639	1142.400024
1395.986685	1141.599976
1396.516675	1127.0
1397.046611	1134.400024
1397.576491	1136.400024
1398.106315	1144.400024
1398.636084	1135.199951
1399.165798	1147.400024
1399.695457	1136.199951
1400.22506	1132.400024
1400.754608	1127.0
1401.284101	1142.199951
1401.813538	1130.199951
1402.34292	1121.599976
1402.872247	1137.400024
1403.401518	1127.199951
1403.930734	1130.0
1404.459895	1129.0
1404.989	1135.800049
1405.51805	1138.400024
1406.047045	1126.199951
1406.575984	1133.599976
1407.104869	1127.400024
1407.633697	1128.800049
1408.162471	1139.0
1408.691189	1150.800049
1409.219852	1155.400024
1409.74846	1204.599976
1410.277013	1221.0
1410.80551	1173.800049
1411.333952	1139.599976
1411.862339	1128.800049
1412.39067	1115.800049
1412.918946	1130.0
1413.447167	1129.800049
1413.975333	1130.199951
1414.503444	1135.599976
1415.031499	1126.800049
1415.559499	1137.0
1416.087444	1117.400024
1416.615333	1120.199951
1417.143167	1109.400024
1417.670947	1122.0
1418.19867	1117.400024
1418.726339	1130.800049
1419.253952	1123.0
1419.781511	1131.400024
1420.309014	1129.199951
1420.836461	1119.800049
1421.363854	1125.400024
1421.891191	1125.400024
1422.418474	1117.199951
1422.945701	1117.0
1423.472872	1127.400024
1423.999989	1124.800049
1424.52705	1123.0
1425.054057	1121.800049
1425.581008	1127.800049
1426.107904	1128.800049
1426.634745	1128.0
1427.16153	1117.800049
1427.688261	1113.199951
1428.214936	1116.0
1428.741556	1114.800049
1429.268121	1118.199951
1429.794631	1124.800049
1430.321085	1119.199951
1430.847485	1117.599976
1431.373829	1121.800049
1431.900118	1116.800049
1432.426353	1110.400024
1432.952532	1119.400024
1433.478655	1122.0
1434.004724	1114.199951
1434.530738	1113.400024
1435.056696	1104.400024
1435.5826	1103.0
1436.108448	1112.400024
1436.634241	1117.800049
1437.159979	1109.800049
1437.685662	1113.800049
1438.21129	1111.199951
1438.736863	1116.0
1439.262381	1107.0
1439.787843	1111.0
1440.313251	1112.199951
1440.838603	1115.800049
1441.3639	1104.400024
1441.889143	1097.400024
1442.41433	1102.800049
1442.939462	1110.400024
1443.464539	1118.800049
1443.989561	1101.199951
1444.514528	1119.199951
1445.03944	1097.199951
1445.564297	1099.199951
1446.089099	1104.199951
1446.613846	1115.400024
1447.138537	1116.400024
1447.663174	1105.400024
1448.187756	1093.599976
1448.712282	1110.0
1449.236754	1107.199951
1449.761171	1104.800049
1450.285532	1112.199951
1450.809839	1104.400024
1451.33409	1107.599976
1451.858287	1103.0
1452.382428	1090.0
1452.906515	1102.800049
1453.430546	1102.0
1453.954523	1106.0
1454.478444	1103.199951
1455.002311	1100.199951
1455.526123	1109.199951
1456.049879	1089.599976
1456.573581	1113.0
1457.097227	1098.199951
1457.620819	1104.599976
1458.144356	1096.800049
1458.667837	1112.400024
1459.191264	1107.199951
1459.714636	1104.599976
1460.237952	1098.0
1460.761214	1098.199951
1461.284421	1102.199951
1461.807573	1110.599976
1462.33067	1092.0
1462.853712	1096.400024
1463.376699	1104.199951
1463.899632	1103.199951
1464.422509	1113.400024
1464.945331	1090.599976
1465.468099	1106.199951
1465.990811	1092.0
1466.513469	1098.199951
1467.036071	1099.0
1467.558619	1095.599976
1468.081112	1096.599976
1468.60355	1094.0
1469.125933	1093.800049
1469.648261	1088.800049
1470.170534	1090.800049
1470.692752	1096.599976
1471.214916	1077.800049
1471.737024	1102.800049
1472.259078	1096.599976
1472.781077	1085.599976
1473.303021	1098.0
1473.82491	1082.800049
1474.346744	1084.599976
1474.868523	1093.800049
1475.390248	1088.199951
1475.911917	1093.599976
1476.433532	1098.599976
1476.955092	1092.0
1477.476597	1092.199951
1477.998047	1093.0
1478.519442	1075.0
1479.040783	1085.800049
1479.562068	1097.199951
1480.083299	1090.199951
1480.604475	1092.400024
1481.125596	1077.800049
1481.646663	1098.400024
1482.167674	1089.199951
1482.688631	1086.0
1483.209533	1082.0
1483.73038	1077.800049
1484.251172	1085.0
1484.771909	1088.599976
1485.292592	1077.400024
1485.81322	1078.0
1486.333793	1076.400024
1486.854311	1082.400024
1487.374775	1082.0
1487.895183	1088.800049
1488.415537	1080.599976
1488.935836	1092.400024
1489.456081	1085.400024
1489.97627	1092.599976
1490.496405	1076.400024
1491.016485	1082.0
1491.536511	1079.199951
1492.056481	1083.199951
1492.576397	1078.599976
1493.096258	1084.800049
1493.616064	1074.199951
1494.135816	1084.800049
1494.655513	1086.0
1495.175155	1090.800049
1495.694742	1085.400024
1496.214274	1074.199951
1496.733752	1081.400024
1497.253175	1088.800049
1497.772544	1073.0
1498.291858	1076.0
1498.811116	1079.0
1499.330321	1078.199951
1499.84947	1089.400024
1500.368565	1071.0
1500.887605	1072.800049
1501.406591	1073.0
1501.925521	1083.0
1502.444397	1074.199951
1502.963219	1077.199951
1503.481985	1086.599976
1504.000697	1075.599976
1504.519355	1073.0
1505.037957	1072.400024
1505.556505	1068.400024
1506.074999	1074.800049
1506.593437	1086.400024
1507.111821	1074.199951
1507.63015	1073.800049
1508.148425	1080.0
1508.666645	1075.599976
1509.18481	1060.400024
1509.702921	1072.0
1510.220977	1065.0
1510.738979	1071.400024
1511.256925	1070.0
1511.774817	1064.199951
1512.292655	1076.599976
1512.810438	1068.599976
1513.328166	1077.800049
1513.84584	1058.199951
1514.363459	1066.0
1514.881023	1063.199951
1515.398533	1063.0
1515.915988	1065.800049
1516.433389	1071.400024
1516.950734	1071.0
1517.468026	1065.800049
1517.985263	1071.0
1518.502445	1056.800049
1519.019572	1060.199951
1519.536645	1072.400024
1520.053664	1070.0
1520.570628	1065.0
1521.087537	1069.599976
1521.604392	1062.400024
1522.121192	1076.199951
1522.637937	1064.599976
1523.154628	1067.199951
1523.671265	1073.599976
1524.187847	1065.800049
1524.704374	1072.0
1525.220847	1076.199951
1525.737265	1067.0
1526.253629	1067.800049
1526.769938	1063.0
1527.286192	1071.199951
1527.802392	1059.800049
1528.318538	1069.599976
1528.834629	1049.800049
1529.350666	1056.400024
1529.866648	1060.599976
1530.382575	1069.599976
1530.898448	1065.800049
1531.414266	1057.599976
1531.93003	1055.400024
1532.44574	1072.800049
1532.961395	1063.599976
1533.476995	1059.599976
1533.992541	1061.0
1534.508033	1068.599976
1535.02347	1074.199951
1535.538852	1078.0
1536.05418	1065.800049
1536.569454	1064.199951
1537.084673	1063.599976
1537.599837	1061.400024
1538.114947	1061.199951
1538.630003	1059.800049
1539.145004	1070.199951
1539.659951	1066.599976
1540.174843	1061.199951
1540.689681	1062.800049
1541.204465	1058.199951
1541.719194	1062.599976
1542.233868	1071.800049
1542.748488	1059.400024
1543.263054	1071.0
1543.777565	1057.0
1544.292022	1062.599976
1544.806424	1071.0
1545.320772	1058.599976
1545.835066	1065.599976
1546.349305	1057.400024
1546.863489	1067.199951
1547.37762	1060.400024
1547.891696	1067.599976
1548.405717	1055.0
1548.919684	1065.400024
1549.433597	1047.400024
1549.947455	1060.0
1550.461259	1051.199951
1550.975009	1068.599976
1551.488704	1069.400024
1552.002345	1063.599976
1552.515931	1058.599976
1553.029463	1056.199951
1553.542941	1063.800049
1554.056364	1058.199951
1554.569733	1063.599976
1555.083048	1062.400024
1555.596308	1063.599976
1556.109514	1058.800049
1556.622665	1045.400024
1557.135762	1062.0
1557.648805	1054.599976
1558.161794	1066.800049
1558.674728	1056.400024
1559.187608	1063.199951
1559.700433	1058.0
1560.213205	1062.800049
1560.725921	1042.599976
1561.238584	1054.400024
1561.751192	1054.599976
1562.263746	1055.400024
1562.776246	1050.599976
1563.288691	1055.199951
1563.801082	1056.800049
1564.313419	1055.400024
1564.825701	1046.599976
1565.337929	1056.599976
1565.850103	1058.800049
1566.362223	1051.800049
1566.874288	1054.0
1567.386299	1053.400024
1567.898256	1058.0
1568.410158	1057.599976
1568.922007	1058.199951
1569.4338	1068.599976
1569.94554	1052.400024
1570.457226	1057.199951
1570.968857	1049.800049
1571.480434	1052.400024
1571.991956	1067.199951
1572.503425	1058.0
1573.014839	1058.800049
1573.526199	1059.0
1574.037505	1050.400024
1574.548756	1050.199951
1575.059953	1055.400024
1575.571096	1046.0
1576.082185	1057.0
1576.59322	1053.599976
1577.1042	1054.0
1577.615126	1058.400024
1578.125998	1055.400024
1578.636816	1068.400024
1579.14758	1047.199951
1579.658289	1054.199951
1580.168944	1057.599976
1580.679545	1044.599976
1581.190092	1053.800049
1581.700585	1049.800049
1582.211023	1060.0
1582.721407	1058.199951
1583.231737	1054.0
1583.742013	1048.599976
1584.252235	1052.199951
1584.762403	1044.599976
1585.272516	1047.400024
1585.782575	1045.199951
1586.292581	1045.599976
1586.802532	1040.0
1587.312428	1058.599976
1587.822271	1043.599976
1588.33206	1047.0
1588.841794	1045.199951
1589.351474	1048.400024
1589.8611	1050.199951
1590.370672	1039.199951
1590.88019	1039.800049
1591.389654	1043.800049
1591.899064	1050.800049
