1042.452273	39861.80078
1043.018714	40137.0
1043.585098	39830.60156
1044.151424	40040.60156
1044.717692	39937.19922
1045.283903	39999.80078
1045.850056	39926.39844
1046.416151	39991.60156
1046.982188	39679.60156
1047.548167	39911.0
1048.114089	39750.19922
1048.679953	40103.19922
1049.24576	39728.80078
1049.811509	40022.39844
1050.3772	39754.19922
1050.942833	39856.39844
1051.508408	39689.0
1052.073926	39758.39844
1052.639387	39567.0
1053.204789	39798.60156
1053.770134	39713.60156
1054.335421	39767.0
1054.900651	39660.39844
1055.465823	39652.60156
1056.030937	39467.19922
1056.595993	39749.39844
1057.160992	39487.39844
1057.725934	39651.80078
1058.290817	39374.60156
1058.855643	39639.19922
1059.420411	39504.39844
1059.985122	39543.19922
1060.549775	39330.80078
1061.114371	39435.0
1061.678908	39459.0
1062.243389	39510.19922
1062.807811	39361.60156
1063.372176	39406.19922
1063.936483	39267.0
1064.500733	39343.60156
1065.064925	39150.0
1065.62906	39352.80078
1066.193137	39307.19922
1066.757156	39383.39844
1067.321118	39148.39844
1067.885022	39144.39844
1068.448869	39115.80078
1069.012658	39143.80078
1069.57639	39070.39844
1070.140063	39061.39844
1070.70368	39047.39844
1071.267239	39066.39844
1071.83074	38960.39844
1072.394184	38951.39844
1072.95757	38800.80078
1073.520899	38963.80078
1074.08417	38984.80078
1074.647383	38730.80078
1075.21054	38886.0
1075.773638	38673.19922
1076.336679	38734.39844
1076.899663	38642.19922
1077.462589	38634.19922
1078.025457	38597.0
1078.588268	38721.80078
1079.151022	38607.80078
1079.713718	38526.19922
1080.276356	38590.80078
1080.838937	38533.19922
1081.401461	38474.60156
1081.963927	38457.60156
1082.526336	38376.60156
1083.088687	38285.80078
1083.650981	38217.19922
1084.213217	38309.60156
1084.775396	38180.0
1085.337517	38233.60156
1085.899581	38257.0
1086.461587	38139.60156
1087.023536	38149.0
1087.585428	38118.60156
1088.147262	38145.39844
1088.709039	37975.39844
1089.270758	38039.19922
1089.83242	37978.0
1090.394024	37909.19922
1090.955571	38017.80078
1091.517061	37867.0
1092.078493	37706.60156
1092.639868	37721.80078
1093.201185	37754.39844
1093.762445	37711.39844
1094.323648	37617.80078
1094.884793	37700.0
1095.445881	37608.80078
1096.006911	37555.19922
1096.567884	37392.39844
1097.1288	37308.39844
1097.689659	37516.80078
1098.25046	37426.60156
1098.811203	37396.80078
1099.37189	37410.0
1099.932518	37356.0
1100.49309	37344.0
1101.053604	37099.0
1101.614061	37133.0
1102.174461	36951.0
1102.734803	37084.19922
1103.295088	37023.39844
1103.855316	37016.0
1104.415486	36885.60156
1104.975599	36907.0
1105.535655	36760.80078
1106.095653	36754.80078
1106.655594	36626.0
1107.215478	36756.60156
1107.775305	36604.80078
1108.335074	36654.0
1108.894786	36545.19922
1109.45444	36462.39844
1110.014038	36513.39844
1110.573578	36667.60156
1111.133061	36494.19922
1111.692486	36473.39844
1112.251854	36243.60156
1112.811165	36428.60156
1113.370419	36263.60156
1113.929616	36457.0
1114.488755	36176.19922
1115.047837	36290.80078
1115.606862	36143.60156
1116.16583	36326.19922
1116.72474	36122.39844
1117.283593	36310.39844
1117.842389	36066.80078
1118.401128	36164.0
1118.959809	35946.39844
1119.518433	36169.0
1120.077	36010.80078
1120.63551	36096.0
1121.193963	35958.80078
1121.752358	36135.60156
1122.310697	35902.39844
1122.868978	35978.19922
1123.427202	35807.39844
1123.985368	35928.39844
1124.543478	35730.39844
1125.10153	35926.19922
1125.659526	35675.0
1126.217464	35895.39844
1126.775345	35692.19922
1127.333168	35928.60156
1127.890935	35585.0
1128.448644	35906.39844
1129.006297	35568.80078
1129.563892	35683.39844
1130.12143	35507.0
1130.678911	35687.60156
1131.236335	35526.80078
1131.793701	35690.0
1132.351011	35507.19922
1132.908263	35635.0
1133.465458	35394.80078
1134.022597	35638.39844
1134.579678	35452.0
1135.136702	35526.39844
1135.693669	35455.39844
1136.250578	35624.39844
1136.807431	35471.80078
1137.364227	35680.39844
1137.920965	35430.80078
1138.477647	35516.39844
1139.034271	35391.0
1139.590839	35489.0
1140.147349	35283.39844
1140.703802	35420.19922
1141.260198	35357.60156
1141.816537	35456.39844
1142.37282	35337.60156
1142.929045	35456.80078
1143.485213	35248.0
1144.041323	35410.80078
1144.597377	35244.19922
1145.153374	35519.60156
1145.709314	35233.19922
1146.265197	35304.0
1146.821023	35334.60156
1147.376792	35361.0
1147.932503	35230.80078
1148.488158	35257.39844
1149.043756	35304.80078
1149.599297	35317.60156
1150.154781	35348.0
1150.710207	35422.39844
1151.265577	35275.19922
1151.82089	35380.0
1152.376146	35358.19922
1152.931345	35176.0
1153.486487	35116.0
1154.041572	35288.0
1154.5966	35168.39844
1155.151571	35268.80078
1155.706485	35297.60156
1156.261342	35273.60156
1156.816142	35232.39844
1157.370885	35261.80078
1157.925572	35133.0
1158.480201	35224.0
1159.034774	35122.0
1159.589289	35209.0
1160.143748	35095.19922
1160.698149	35049.0
1161.252494	35068.60156
1161.806782	35192.0
1162.361013	35121.80078
1162.915187	35071.60156
1163.469304	35037.39844
1164.023364	34962.0
1164.577368	34997.60156
1165.131314	34954.0
1165.685204	34978.80078
1166.239036	34835.39844
1166.792812	34949.0
1167.346531	34808.0
1167.900193	34888.39844
1168.453798	34788.0
1169.007347	34942.19922
1169.560838	34707.0
1170.114273	34957.60156
1170.66765	34721.60156
1171.220971	34889.19922
1171.774235	34722.39844
1172.327443	34690.60156
1172.880593	34625.19922
1173.433687	34812.19922
1173.986723	34632.39844
1174.539703	34719.80078
1175.092626	34686.80078
1175.645493	34729.19922
1176.198302	34534.0
1176.751055	34610.80078
1177.303751	34641.19922
1177.85639	34709.39844
1178.408972	34594.19922
1178.961498	34725.60156
1179.513966	34441.60156
1180.066378	34436.0
1180.618733	34407.60156
1181.171032	34414.0
1181.723273	34250.19922
1182.275458	34402.60156
1182.827586	34327.80078
1183.379657	34324.39844
1183.931672	34345.39844
1184.48363	34307.0
1185.035531	34398.19922
1185.587375	34221.60156
1186.139162	34341.60156
1186.690893	34163.80078
1187.242567	34179.0
1187.794184	34239.19922
1188.345745	34290.39844
1188.897249	34167.0
1189.448696	34166.19922
1190.000086	34047.19922
1190.55142	33932.39844
1191.102697	33998.0
1191.653918	34182.0
1192.205081	33944.19922
1192.756188	34032.60156
1193.307238	33914.80078
1193.858232	34014.60156
1194.409169	33857.80078
1194.960049	33903.19922
1195.510872	33818.0
1196.061639	33873.19922
1196.612349	33911.19922
1197.163003	33696.60156
1197.713599	33802.19922
1198.264139	33832.0
1198.814623	33675.60156
1199.36505	33739.39844
1199.91542	33611.80078
1200.465734	33685.80078
1201.01599	33611.39844
1201.566191	33519.19922
1202.116334	33555.60156
1202.666421	33444.60156
1203.216452	33627.0
1203.766425	33499.0
1204.316343	33481.19922
1204.866203	33311.80078
1205.416007	33381.60156
1205.965754	33417.39844
1206.515445	33340.19922
1207.065079	33336.19922
1207.614657	33283.60156
1208.164177	33216.19922
1208.713642	33283.0
1209.26305	33064.0
1209.812401	33234.19922
1210.361695	33104.60156
1210.910933	33108.80078
1211.460115	33055.60156
1212.00924	33054.39844
1212.558308	33003.19922
1213.10732	33124.60156
1213.656275	32924.0
1214.205174	33092.0
1214.754016	32863.39844
1215.302801	32937.39844
1215.85153	33061.80078
1216.400203	32887.19922
1216.948819	32856.80078
1217.497378	32880.19922
1218.045881	32906.19922
1218.594327	32739.80078
1219.142717	32866.60156
1219.691051	32581.80078
1220.239327	32766.40039
1220.787548	32748.0
1221.335712	32876.19922
1221.883819	32587.0
1222.43187	32745.59961
1222.979864	32521.19922
1223.527802	32612.19922
1224.075683	32543.0
1224.623508	32597.40039
1225.171277	32357.59961
1225.718989	32543.0
1226.266644	32416.0
1226.814243	32520.59961
1227.361786	32351.59961
1227.909272	32536.80078
1228.456702	32340.59961
1229.004075	32420.59961
1229.551392	32392.19922
1230.098652	32416.59961
1230.645856	32293.80078
1231.193003	32344.59961
1231.740094	32316.80078
1232.287129	32189.19922
1232.834107	32185.19922
1233.381029	32166.0
1233.927894	32246.0
1234.474703	32221.40039
1235.021455	32162.59961
1235.568151	32113.80078
1236.114791	32195.40039
1236.661374	32024.19922
1237.207901	32250.80078
1237.754372	31971.0
1238.300786	32091.40039
1238.847144	32043.19922
1239.393445	32060.40039
1239.93969	31878.40039
1240.485879	32093.40039
1241.032011	31856.40039
1241.578087	31933.19922
1242.124106	31756.80078
1242.67007	31978.0
1243.215976	31848.0
1243.761827	31848.19922
1244.307621	31807.0
1244.853359	31838.0
1245.39904	31730.40039
1245.944665	31800.40039
1246.490234	31778.19922
1247.035746	31705.40039
1247.581203	31668.80078
1248.126602	31539.59961
1248.671946	31755.40039
1249.217233	31658.80078
1249.762464	31734.59961
1250.307638	31476.59961
1250.852757	31666.80078
1251.397819	31657.40039
1251.942824	31625.0
1252.487774	31566.40039
1253.032667	31621.0
1253.577503	31407.40039
1254.122284	31563.19922
1254.667008	31381.80078
1255.211676	31467.40039
1255.756288	31334.19922
1256.300843	31483.80078
1256.845342	31422.59961
1257.389785	31308.59961
1257.934172	31257.59961
1258.478502	31450.40039
1259.022776	31277.80078
1259.566994	31353.80078
1260.111156	31266.80078
1260.655261	31179.80078
1261.199311	31182.0
1261.743304	31183.80078
1262.28724	31141.19922
1262.831121	31092.80078
1263.374945	31190.59961
1263.918713	31008.0
1264.462425	31016.59961
1265.006081	31065.19922
1265.54968	31044.40039
1266.093223	31032.0
1266.636711	30930.0
1267.180141	30914.40039
1267.723516	31056.19922
1268.266835	30961.59961
1268.810097	31131.40039
1269.353303	30787.40039
1269.896453	30918.19922
1270.439547	30790.80078
1270.982584	30842.0
1271.525566	30829.80078
1272.068491	30796.19922
1272.61136	30821.40039
1273.154173	30869.19922
1273.69693	30788.0
1274.239631	30825.59961
1274.782275	30628.0
1275.324864	30727.59961
1275.867396	30820.19922
1276.409872	30675.40039
1276.952292	30658.19922
1277.494656	30653.59961
1278.036964	30618.80078
1278.579215	30545.40039
1279.121411	30522.59961
1279.66355	30596.80078
1280.205634	30556.80078
1280.747661	30490.40039
1281.289632	30451.19922
1281.831547	30448.0
1282.373406	30437.80078
1282.915209	30423.40039
1283.456955	30408.80078
1283.998646	30270.80078
1284.540281	30414.19922
1285.081859	30360.59961
1285.623381	30443.40039
1286.164848	30358.19922
1286.706258	30288.59961
1287.247612	30191.59961
1287.788911	30246.0
1288.330153	30107.80078
1288.871339	30207.59961
1289.412469	30180.80078
1289.953543	30157.80078
1290.494561	30056.19922
1291.035523	30166.0
1291.576428	30056.59961
1292.117278	30170.0
1292.658072	29927.40039
1293.19881	30054.19922
1293.739492	29888.80078
1294.280118	29885.0
1294.820687	29924.80078
1295.361201	29988.0
1295.901659	29908.0
1296.442061	29861.0
1296.982406	29857.19922
1297.522696	29879.40039
1298.06293	29903.19922
1298.603108	29725.19922
1299.143229	29878.80078
1299.683295	29667.80078
1300.223305	29731.59961
1300.763259	29609.0
1301.303157	29691.0
1301.842999	29601.0
1302.382785	29696.0
1302.922515	29476.19922
1303.462189	29667.59961
1304.001807	29442.0
1304.541369	29612.59961
1305.080875	29564.40039
1305.620326	29546.80078
1306.15972	29443.40039
1306.699058	29437.40039
1307.238341	29429.80078
1307.777567	29376.80078
1308.316738	29411.19922
1308.855853	29425.0
1309.394912	29438.59961
1309.933915	29348.59961
1310.472862	29270.19922
1311.011753	29277.19922
1311.550588	29281.59961
1312.089367	29185.59961
1312.62809	29355.80078
1313.166758	29174.19922
1313.70537	29337.0
1314.243925	29170.19922
1314.782425	29318.19922
1315.320869	29024.59961
1315.859257	29219.40039
1316.397589	29036.59961
1316.935866	29128.59961
1317.474086	28973.80078
1318.012251	29093.40039
1318.55036	29017.19922
1319.088413	28948.0
1319.62641	28905.59961
1320.164351	28973.19922
1320.702236	28940.0
1321.240066	28900.80078
1321.777839	29017.0
1322.315557	28799.19922
1322.853219	28849.80078
1323.390826	28882.80078
1323.928376	28973.0
1324.465871	28670.59961
1325.003309	28784.0
1325.540692	28639.40039
1326.07802	28800.59961
1326.615291	28684.19922
1327.152506	28737.40039
1327.689666	28611.59961
1328.22677	28763.19922
1328.763818	28577.80078
1329.300811	28633.40039
1329.837747	28602.80078
1330.374628	28670.40039
1330.911453	28470.80078
1331.448222	28604.0
1331.984936	28523.80078
1332.521594	28413.59961
1333.058196	28490.80078
1333.594742	28424.19922
1334.131232	28535.19922
1334.667667	28340.59961
1335.204046	28529.40039
1335.740369	28408.0
1336.276637	28463.59961
1336.812848	28266.80078
1337.349004	28482.0
1337.885105	28442.59961
1338.421149	28433.0
1338.957138	28253.0
1339.493071	28375.59961
1340.028949	28188.40039
1340.56477	28204.40039
1341.100536	28187.59961
1341.636246	28154.40039
1342.171901	28089.0
1342.7075	28076.0
1343.243043	28125.19922
1343.77853	28039.80078
1344.313962	28217.0
1344.849338	28047.59961
1345.384659	28107.80078
1345.919923	27946.0
1346.455133	28051.0
1346.990286	27921.0
1347.525384	27939.19922
1348.060426	27908.80078
1348.595412	27916.0
1349.130343	27859.0
1349.665218	27997.80078
1350.200037	27889.40039
1350.734801	28060.59961
1351.269509	27842.59961
1351.804162	27919.80078
1352.338758	27802.40039
1352.8733	27805.0
1353.407785	27850.40039
1353.942215	27654.80078
1354.476589	27810.19922
1355.010908	27590.80078
1355.545171	27751.0
1356.079379	27563.59961
1356.61353	27801.40039
1357.147627	27525.19922
1357.681667	27674.40039
1358.215652	27500.0
1358.749582	27633.40039
1359.283456	27468.0
1359.817274	27627.0
1360.351037	27413.19922
1360.884744	27547.80078
1361.418395	27398.80078
1361.951991	27469.59961
1362.485531	27454.0
1363.019016	27536.19922
1363.552445	27457.0
1364.085819	27391.0
1364.619137	27440.19922
1365.1524	27246.59961
1365.685607	27406.0
1366.218758	27194.80078
1366.751854	27502.0
1367.284894	27227.19922
1367.817879	27288.80078
1368.350808	27037.0
1368.883682	27336.59961
1369.4165	27188.19922
1369.949263	27321.19922
1370.48197	27173.80078
1371.014622	27120.59961
1371.547218	27140.0
1372.079758	27066.0
1372.612244	27065.0
1373.144673	27100.0
1373.677047	27067.59961
1374.209366	26969.80078
1374.741629	27016.0
1375.273836	26866.0
1375.805989	27122.19922
1376.338085	26883.40039
1376.870126	27037.0
1377.402112	26752.59961
1377.934042	27053.59961
1378.465917	26811.59961
1378.997736	27064.0
1379.5295	26806.40039
1380.061208	26952.0
1380.592861	26726.59961
1381.124459	26908.40039
1381.656	26747.40039
1382.187487	26773.0
1382.718918	26786.19922
1383.250294	26804.80078
1383.781614	26865.80078
1384.312879	26598.59961
1384.844088	26788.80078
1385.375242	26557.19922
1385.90634	26771.59961
1386.437383	26550.0
1386.968371	26834.40039
1387.499303	26668.59961
1388.03018	26781.40039
1388.561001	26677.80078
1389.091767	26809.59961
1389.622478	26503.59961
1390.153133	26523.59961
1390.683733	26545.40039
1391.214277	26500.80078
1391.744766	26582.59961
1392.2752	26484.19922
1392.805578	26504.19922
1393.335901	26345.0
1393.866168	26517.59961
1394.396381	26337.40039
1394.926537	26521.0
1395.456639	26242.59961
1395.986685	26499.19922
1396.516675	26265.80078
1397.046611	26480.59961
1397.576491	26274.19922
1398.106315	26342.19922
1398.636084	26320.40039
1399.165798	26393.80078
1399.695457	26351.19922
1400.22506	26222.40039
1400.754608	26322.0
1401.284101	26117.40039
1401.813538	26334.80078
1402.34292	26122.19922
1402.872247	26303.59961
1403.401518	26188.59961
1403.930734	26273.80078
1404.459895	26112.19922
1404.989	26295.0
1405.51805	26164.0
1406.047045	26197.40039
1406.575984	26197.0
1407.104869	26147.19922
1407.633697	26078.0
1408.162471	26111.80078
1408.691189	26196.19922
1409.219852	25989.19922
1409.74846	26142.59961
1410.277013	25994.59961
1410.80551	26090.40039
1411.333952	25862.80078
1411.862339	26042.40039
1412.39067	25853.19922
1412.918946	26097.59961
1413.447167	25923.0
1413.975333	25906.19922
1414.503444	25999.19922
1415.031499	25905.40039
1415.559499	25892.40039
1416.087444	25823.0
1416.615333	25854.40039
1417.143167	25822.0
1417.670947	25873.0
1418.19867	25800.0
1418.726339	25819.0
1419.253952	25633.80078
1419.781511	25875.59961
1420.309014	25748.40039
1420.836461	25790.40039
1421.363854	25714.40039
1421.891191	25800.19922
1422.418474	25623.19922
1422.945701	25693.19922
1423.472872	25605.80078
1423.999989	25605.59961
1424.52705	25757.80078
1425.054057	25643.0
1425.581008	25727.59961
1426.107904	25674.40039
1426.634745	25650.59961
1427.16153	25550.80078
1427.688261	25589.59961
1428.214936	25558.19922
1428.741556	25562.0
1429.268121	25543.40039
1429.794631	25532.40039
1430.321085	25444.19922
1430.847485	25580.40039
1431.373829	25485.19922
1431.900118	25388.0
1432.426353	25422.19922
1432.952532	25438.0
1433.478655	25370.19922
1434.004724	25301.59961
1434.530738	25418.0
1435.056696	25340.0
1435.5826	25328.80078
1436.108448	25239.19922
1436.634241	25249.0
1437.159979	25131.0
1437.685662	25266.0
1438.21129	25188.40039
1438.736863	25276.80078
1439.262381	25178.59961
1439.787843	25221.19922
1440.313251	25181.0
1440.838603	25168.59961
1441.3639	25112.59961
1441.889143	25153.40039
1442.41433	25105.80078
1442.939462	25093.80078
1443.464539	25048.0
1443.989561	25012.40039
1444.514528	25000.59961
1445.03944	24893.19922
1445.564297	24941.40039
1446.089099	24943.0
1446.613846	24955.40039
1447.138537	24993.40039
1447.663174	24940.59961
1448.187756	24946.19922
1448.712282	24946.19922
1449.236754	24859.19922
1449.761171	24825.80078
1450.285532	24829.19922
1450.809839	24813.59961
1451.33409	24823.80078
1451.858287	24753.80078
1452.382428	24693.40039
1452.906515	24713.19922
1453.430546	24810.19922
1453.954523	24765.59961
1454.478444	24768.59961
1455.002311	24634.80078
1455.526123	24736.0
1456.049879	24604.59961
1456.573581	24735.59961
1457.097227	24631.40039
1457.620819	24610.40039
1458.144356	24604.0
1458.667837	24595.59961
1459.191264	24546.19922
1459.714636	24518.0
1460.237952	24496.40039
1460.761214	24506.0
1461.284421	24542.19922
1461.807573	24442.59961
1462.33067	24499.19922
1462.853712	24405.40039
1463.376699	24437.40039
1463.899632	24366.19922
1464.422509	24417.40039
1464.945331	24421.59961
1465.468099	24308.19922
1465.990811	24334.0
1466.513469	24309.0
1467.036071	24356.40039
1467.558619	24291.59961
1468.081112	24239.59961
1468.60355	24182.59961
1469.125933	24303.80078
1469.648261	24301.19922
1470.170534	24273.19922
1470.692752	24080.59961
1471.214916	24110.0
1471.737024	24110.40039
1472.259078	24131.0
1472.781077	23997.40039
1473.303021	24106.80078
1473.82491	24090.59961
1474.346744	24030.59961
1474.868523	24101.0
1475.390248	23981.80078
1475.911917	24100.80078
1476.433532	23942.19922
1476.955092	24046.19922
1477.476597	23888.0
1477.998047	23944.0
1478.519442	23795.80078
1479.040783	23909.80078
1479.562068	23818.19922
1480.083299	23859.0
1480.604475	23860.40039
1481.125596	23856.19922
1481.646663	23902.40039
1482.167674	23802.59961
1482.688631	23794.0
1483.209533	23673.59961
1483.73038	23664.59961
1484.251172	23656.59961
1484.771909	23689.19922
1485.292592	23694.0
1485.81322	23711.59961
1486.333793	23620.19922
1486.854311	23636.80078
1487.374775	23533.59961
1487.895183	23515.80078
1488.415537	23524.40039
1488.935836	23520.19922
1489.456081	23600.59961
1489.97627	23458.19922
1490.496405	23514.0
1491.016485	23395.80078
1491.536511	23437.40039
1492.056481	23474.40039
1492.576397	23491.40039
1493.096258	23384.0
1493.616064	23354.0
1494.135816	23342.59961
1494.655513	23305.0
1495.175155	23284.59961
1495.694742	23339.0
1496.214274	23273.40039
1496.733752	23248.40039
1497.253175	23252.40039
1497.772544	23335.0
1498.291858	23253.40039
1498.811116	23314.19922
1499.330321	23157.80078
1499.84947	23217.80078
1500.368565	23170.19922
1500.887605	23229.0
1501.406591	23113.59961
1501.925521	23119.59961
1502.444397	23084.80078
1502.963219	23182.40039
1503.481985	23120.0
1504.000697	23110.19922
1504.519355	23042.19922
1505.037957	23097.80078
1505.556505	23058.59961
1506.074999	23004.19922
1506.593437	22961.19922
1507.111821	23006.40039
1507.63015	22873.40039
1508.148425	22868.59961
1508.666645	22941.0
1509.18481	22930.19922
1509.702921	22882.19922
1510.220977	22862.40039
1510.738979	22833.40039
1511.256925	22875.80078
1511.774817	22871.59961
1512.292655	22835.0
1512.810438	22817.40039
1513.328166	22769.59961
1513.84584	22761.59961
1514.363459	22718.19922
1514.881023	22739.40039
1515.398533	22769.19922
1515.915988	22778.59961
1516.433389	22705.0
1516.950734	22675.59961
1517.468026	22685.19922
1517.985263	22686.0
1518.502445	22757.80078
1519.019572	22675.0
1519.536645	22551.59961
1520.053664	22682.59961
1520.570628	22745.80078
1521.087537	22496.59961
1521.604392	22725.80078
1522.121192	22540.19922
1522.637937	22680.80078
1523.154628	22566.40039
1523.671265	22534.19922
1524.187847	22590.19922
1524.704374	22529.0
1525.220847	22604.40039
1525.737265	22543.59961
1526.253629	22610.40039
1526.769938	22496.0
1527.286192	22560.80078
1527.802392	22514.19922
1528.318538	22502.80078
1528.834629	22451.0
1529.350666	22505.40039
1529.866648	22451.19922
1530.382575	22439.19922
1530.898448	22473.19922
1531.414266	22468.40039
1531.93003	22440.19922
1532.44574	22407.19922
1532.961395	22543.40039
1533.476995	22349.19922
1533.992541	22336.80078
1534.508033	22322.59961
1535.02347	22304.19922
1535.538852	22340.40039
1536.05418	22353.80078
1536.569454	22432.80078
1537.084673	22219.40039
1537.599837	22343.0
1538.114947	22279.40039
1538.630003	22265.40039
1539.145004	22278.80078
1539.659951	22278.40039
1540.174843	22281.80078
1540.689681	22300.40039
1541.204465	22350.40039
1541.719194	22207.0
1542.233868	22238.40039
1542.748488	22220.59961
1543.263054	22273.19922
1543.777565	22175.59961
1544.292022	22206.80078
1544.806424	22196.59961
1545.320772	22197.19922
1545.835066	22191.19922
1546.349305	22169.19922
1546.863489	22111.80078
1547.37762	22225.0
1547.891696	22240.40039
1548.405717	22049.0
1548.919684	22086.80078
1549.433597	22024.40039
1549.947455	22182.80078
1550.461259	22047.40039
1550.975009	22034.80078
1551.488704	22066.19922
1552.002345	22079.0
1552.515931	22125.0
1553.029463	22015.59961
1553.542941	22048.19922
1554.056364	21956.19922
1554.569733	22109.19922
1555.083048	22008.19922
1555.596308	22091.0
1556.109514	21917.0
1556.622665	21982.19922
1557.135762	21925.0
1557.648805	22024.80078
1558.161794	22000.40039
1558.674728	21978.80078
1559.187608	21967.19922
1559.700433	21807.59961
1560.213205	21976.59961
1560.725921	21776.19922
1561.238584	21973.19922
1561.751192	21843.19922
1562.263746	22007.40039
1562.776246	21898.59961
1563.288691	21813.40039
1563.801082	21850.40039
1564.313419	21791.0
1564.825701	21893.40039
1565.337929	21757.0
1565.850103	21823.59961
1566.362223	21590.59961
1566.874288	21817.0
1567.386299	21822.19922
1567.898256	21746.59961
1568.410158	21692.59961
1568.922007	21683.59961
1569.4338	21737.0
1569.94554	21639.19922
1570.457226	21795.80078
1570.968857	21633.40039
1571.480434	21784.0
1571.991956	21690.19922
1572.503425	21730.59961
1573.014839	21619.80078
1573.526199	21606.0
1574.037505	21597.80078
1574.548756	21534.59961
1575.059953	21610.19922
1575.571096	21530.80078
1576.082185	21747.59961
1576.59322	21552.59961
1577.1042	21746.80078
1577.615126	21559.59961
1578.125998	21622.59961
1578.636816	21471.19922
1579.14758	21474.0
1579.658289	21513.80078
1580.168944	21512.19922
1580.679545	21405.40039
1581.190092	21289.19922
1581.700585	21386.0
1582.211023	21210.59961
1582.721407	21403.19922
1583.231737	21242.40039
1583.742013	21344.19922
1584.252235	21283.19922
1584.762403	21299.19922
1585.272516	21355.0
1585.782575	21327.40039
1586.292581	21440.19922
1586.802532	21238.0
1587.312428	21428.80078
1587.822271	21306.0
1588.33206	21343.80078
1588.841794	21328.19922
1589.351474	21333.40039
1589.8611	21159.59961
1590.370672	21193.40039
1590.88019	21336.40039
1591.389654	21177.40039
1591.899064	21380.0
