1042.452273	2713.399902
1043.018714	2712.600098
1043.585098	2684.0
1044.151424	2711.800049
1044.717692	2697.0
1045.283903	2726.0
1045.850056	2713.399902
1046.416151	2686.600098
1046.982188	2704.399902
1047.548167	2724.399902
1048.114089	2677.199951
1048.679953	2713.0
1049.24576	2683.600098
1049.811509	2717.399902
1050.3772	2690.199951
1050.942833	2707.0
1051.508408	2686.800049
1052.073926	2702.0
1052.639387	2669.600098
1053.204789	2695.600098
1053.770134	2708.0
1054.335421	2690.600098
1054.900651	2678.0
1055.465823	2685.600098
1056.030937	2664.199951
1056.595993	2703.600098
1057.160992	2708.800049
1057.725934	2685.600098
1058.290817	2676.199951
1058.855643	2666.399902
1059.420411	2670.199951
1059.985122	2683.800049
1060.549775	2666.600098
1061.114371	2681.0
1061.678908	2654.399902
1062.243389	2674.800049
1062.807811	2639.600098
1063.372176	2690.800049
1063.936483	2632.800049
1064.500733	2663.600098
1065.064925	2651.399902
1065.62906	2681.0
1066.193137	2652.199951
1066.757156	2653.199951
1067.321118	2656.399902
1067.885022	2643.199951
1068.448869	2650.800049
1069.012658	2632.600098
1069.57639	2644.199951
1070.140063	2645.399902
1070.70368	2658.600098
1071.267239	2662.800049
1071.83074	2642.199951
1072.394184	2628.199951
1072.95757	2632.199951
1073.520899	2635.600098
1074.08417	2624.399902
1074.647383	2635.600098
1075.21054	2634.399902
1075.773638	2612.0
1076.336679	2638.600098
1076.899663	2619.199951
1077.462589	2595.0
1078.025457	2643.600098
1078.588268	2641.399902
1079.151022	2620.600098
1079.713718	2611.600098
1080.276356	2605.800049
1080.838937	2605.0
1081.401461	2616.399902
1081.963927	2593.600098
1082.526336	2599.0
1083.088687	2588.199951
1083.650981	2587.0
1084.213217	2568.600098
1084.775396	2607.0
1085.337517	2584.800049
1085.899581	2597.600098
1086.461587	2603.800049
1087.023536	2560.0
1087.585428	2610.0
1088.147262	2568.0
1088.709039	2595.800049
1089.270758	2606.0
1089.83242	2582.800049
1090.394024	2576.600098
1090.955571	2579.199951
1091.517061	2584.600098
1092.078493	2566.800049
1092.639868	2562.0
1093.201185	2560.199951
1093.762445	2546.199951
1094.323648	2583.199951
1094.884793	2548.0
1095.445881	2560.600098
1096.006911	2539.800049
1096.567884	2542.600098
1097.1288	2552.199951
1097.689659	2566.800049
1098.25046	2571.0
1098.811203	2531.600098
1099.37189	2549.0
1099.932518	2559.199951
1100.49309	2533.399902
1101.053604	2532.800049
1101.614061	2529.0
1102.174461	2532.199951
1102.734803	2525.600098
1103.295088	2515.399902
1103.855316	2519.199951
1104.415486	2518.800049
1104.975599	2512.600098
1105.535655	2532.800049
1106.095653	2513.800049
1106.655594	2493.0
1107.215478	2513.0
1107.775305	2526.399902
1108.335074	2502.399902
1108.894786	2502.800049
1109.45444	2483.199951
1110.014038	2499.800049
1110.573578	2491.399902
1111.133061	2504.800049
1111.692486	2502.800049
1112.251854	2487.800049
1112.811165	2507.399902
1113.370419	2484.199951
1113.929616	2484.600098
1114.488755	2486.800049
1115.047837	2509.399902
1115.606862	2460.600098
1116.16583	2509.399902
1116.72474	2553.199951
1117.283593	2494.800049
1117.842389	2495.399902
1118.401128	2472.0
1118.959809	2481.800049
1119.518433	2475.199951
1120.077	2450.0
1120.63551	2482.0
1121.193963	2473.399902
1121.752358	2476.199951
1122.310697	2467.800049
1122.868978	2491.0
1123.427202	2464.0
1123.985368	2462.800049
1124.543478	2461.800049
1125.10153	2471.199951
1125.659526	2442.0
1126.217464	2480.800049
1126.775345	2460.399902
1127.333168	2471.0
1127.890935	2444.600098
1128.448644	2451.199951
1129.006297	2439.600098
1129.563892	2438.600098
1130.12143	2420.199951
1130.678911	2449.600098
1131.236335	2431.199951
1131.793701	2452.600098
1132.351011	2421.800049
1132.908263	2468.199951
1133.465458	2431.600098
1134.022597	2458.199951
1134.579678	2431.0
1135.136702	2439.0
1135.693669	2419.600098
1136.250578	2446.800049
1136.807431	2430.0
1137.364227	2437.600098
1137.920965	2431.800049
1138.477647	2453.800049
1139.034271	2430.600098
1139.590839	2427.399902
1140.147349	2406.199951
1140.703802	2447.199951
1141.260198	2432.0
1141.816537	2448.399902
1142.37282	2437.600098
1142.929045	2411.600098
1143.485213	2424.0
1144.041323	2418.800049
1144.597377	2427.399902
1145.153374	2440.600098
1145.709314	2415.0
1146.265197	2438.199951
1146.821023	2415.399902
1147.376792	2425.600098
1147.932503	2405.0
1148.488158	2438.800049
1149.043756	2388.600098
1149.599297	2418.600098
1150.154781	2418.800049
1150.710207	2404.399902
1151.265577	2444.600098
1151.82089	2435.600098
1152.376146	2439.199951
1152.931345	2427.0
1153.486487	2402.800049
1154.041572	2419.0
1154.5966	2411.399902
1155.151571	2407.0
1155.706485	2420.199951
1156.261342	2436.399902
1156.816142	2438.199951
1157.370885	2424.399902
1157.925572	2413.800049
1158.480201	2409.600098
1159.034774	2398.199951
1159.589289	2414.0
1160.143748	2396.0
1160.698149	2414.600098
1161.252494	2412.0
1161.806782	2410.199951
1162.361013	2436.0
1162.915187	2411.199951
1163.469304	2391.600098
1164.023364	2408.600098
1164.577368	2396.199951
1165.131314	2410.399902
1165.685204	2408.199951
1166.239036	2386.399902
1166.792812	2418.199951
1167.346531	2414.800049
1167.900193	2388.0
1168.453798	2379.399902
1169.007347	2398.600098
1169.560838	2380.800049
1170.114273	2398.399902
1170.66765	2384.600098
1171.220971	2408.600098
1171.774235	2387.199951
1172.327443	2383.199951
1172.880593	2363.600098
1173.433687	2396.600098
1173.986723	2390.199951
1174.539703	2399.199951
1175.092626	2371.399902
1175.645493	2372.199951
1176.198302	2388.399902
1176.751055	2379.0
1177.303751	2353.199951
1177.85639	2386.399902
1178.408972	2389.800049
1178.961498	2377.800049
1179.513966	2384.600098
1180.066378	2368.399902
1180.618733	2354.399902
1181.171032	2364.0
1181.723273	2370.399902
1182.275458	2353.199951
1182.827586	2356.600098
1183.379657	2349.600098
1183.931672	2368.0
1184.48363	2367.600098
1185.035531	2357.800049
1185.587375	2357.199951
1186.139162	2369.399902
1186.690893	2357.0
1187.242567	2377.800049
1187.794184	2379.399902
1188.345745	2389.399902
1188.897249	2358.399902
1189.448696	2362.800049
1190.000086	2379.199951
1190.55142	2352.600098
1191.102697	2347.800049
1191.653918	2375.199951
1192.205081	2367.800049
1192.756188	2333.399902
1193.307238	2347.399902
1193.858232	2373.199951
1194.409169	2339.800049
1194.960049	2358.800049
1195.510872	2349.600098
1196.061639	2337.199951
1196.612349	2335.600098
1197.163003	2345.0
1197.713599	2345.600098
1198.264139	2344.800049
1198.814623	2327.199951
1199.36505	2339.399902
1199.91542	2335.199951
1200.465734	2337.399902
1201.01599	2318.800049
1201.566191	2332.399902
1202.116334	2307.600098
1202.666421	2325.0
1203.216452	2323.399902
1203.766425	2332.399902
1204.316343	2336.800049
1204.866203	2327.399902
1205.416007	2314.399902
1205.965754	2338.800049
1206.515445	2285.800049
1207.065079	2334.199951
1207.614657	2320.399902
1208.164177	2301.399902
1208.713642	2303.600098
1209.26305	2300.800049
1209.812401	2307.0
1210.361695	2320.800049
1210.910933	2319.800049
1211.460115	2311.0
1212.00924	2291.399902
1212.558308	2326.399902
1213.10732	2305.199951
1213.656275	2319.199951
1214.205174	2291.199951
1214.754016	2308.0
1215.302801	2313.800049
1215.85153	2303.399902
1216.400203	2296.199951
1216.948819	2296.0
1217.497378	2308.199951
1218.045881	2286.0
1218.594327	2282.800049
1219.142717	2300.399902
1219.691051	2301.0
1220.239327	2271.199951
1220.787548	2286.800049
1221.335712	2294.0
1221.883819	2277.0
1222.43187	2304.800049
1222.979864	2266.600098
1223.527802	2299.800049
1224.075683	2279.199951
1224.623508	2284.199951
1225.171277	2261.399902
1225.718989	2280.0
1226.266644	2266.800049
1226.814243	2289.0
1227.361786	2269.399902
1227.909272	2272.0
1228.456702	2270.399902
1229.004075	2289.600098
1229.551392	2259.0
1230.098652	2285.600098
1230.645856	2278.800049
1231.193003	2265.0
1231.740094	2286.600098
1232.287129	2281.0
1232.834107	2264.199951
1233.381029	2250.0
1233.927894	2274.0
1234.474703	2266.199951
1235.021455	2269.399902
1235.568151	2247.0
1236.114791	2250.399902
1236.661374	2261.399902
1237.207901	2283.199951
1237.754372	2264.199951
1238.300786	2265.800049
1238.847144	2262.800049
1239.393445	2251.600098
1239.93969	2244.0
1240.485879	2271.0
1241.032011	2269.600098
1241.578087	2250.800049
1242.124106	2238.399902
1242.67007	2248.199951
1243.215976	2243.0
1243.761827	2253.199951
1244.307621	2229.600098
1244.853359	2254.399902
1245.39904	2224.0
1245.944665	2262.600098
1246.490234	2259.600098
1247.035746	2243.0
1247.581203	2241.0
1248.126602	2226.600098
1248.671946	2242.199951
1249.217233	2219.600098
1249.762464	2261.800049
1250.307638	2257.600098
1250.852757	2244.0
1251.397819	2255.600098
1251.942824	2223.800049
1252.487774	2236.800049
1253.032667	2240.0
1253.577503	2223.199951
1254.122284	2233.600098
1254.667008	2226.399902
1255.211676	2246.0
1255.756288	2238.399902
1256.300843	2241.600098
1256.845342	2230.199951
1257.389785	2237.800049
1257.934172	2223.199951
1258.478502	2236.0
1259.022776	2244.600098
1259.566994	2253.399902
1260.111156	2237.0
1260.655261	2234.600098
1261.199311	2217.0
1261.743304	2232.399902
1262.28724	2227.600098
1262.831121	2217.399902
1263.374945	2235.399902
1263.918713	2234.600098
1264.462425	2262.399902
1265.006081	2301.800049
1265.54968	2297.0
1266.093223	2257.399902
1266.636711	2242.600098
1267.180141	2212.600098
1267.723516	2236.600098
1268.266835	2228.199951
1268.810097	2223.0
1269.353303	2200.199951
1269.896453	2198.600098
1270.439547	2208.399902
1270.982584	2218.399902
1271.525566	2190.600098
1272.068491	2221.199951
1272.61136	2224.199951
1273.154173	2230.0
1273.69693	2203.0
1274.239631	2201.800049
1274.782275	2210.800049
1275.324864	2205.199951
1275.867396	2194.399902
1276.409872	2200.0
1276.952292	2201.600098
1277.494656	2209.600098
1278.036964	2201.399902
1278.579215	2198.600098
1279.121411	2214.399902
1279.66355	2201.0
1280.205634	2191.199951
1280.747661	2186.399902
1281.289632	2189.800049
1281.831547	2218.800049
1282.373406	2207.199951
1282.915209	2208.399902
1283.456955	2228.0
1283.998646	2293.0
1284.540281	2536.800049
1285.081859	3191.0
1285.623381	3516.0
1286.164848	2695.399902
1286.706258	2330.399902
1287.247612	2233.0
1287.788911	2207.0
1288.330153	2190.800049
1288.871339	2190.800049
1289.412469	2178.199951
1289.953543	2177.0
1290.494561	2190.0
1291.035523	2182.0
1291.576428	2181.800049
1292.117278	2175.0
1292.658072	2154.199951
1293.19881	2180.800049
1293.739492	2174.199951
1294.280118	2177.0
1294.820687	2164.0
1295.361201	2151.0
1295.901659	2144.199951
1296.442061	2167.800049
1296.982406	2154.600098
1297.522696	2147.199951
1298.06293	2167.600098
1298.603108	2167.0
1299.143229	2150.800049
1299.683295	2169.199951
1300.223305	2160.600098
1300.763259	2153.800049
1301.303157	2164.399902
1301.842999	2156.399902
1302.382785	2153.399902
1302.922515	2136.199951
1303.462189	2163.600098
1304.001807	2147.199951
1304.541369	2139.199951
1305.080875	2145.0
1305.620326	2149.199951
1306.15972	2143.0
1306.699058	2162.199951
1307.238341	2134.600098
1307.777567	2143.800049
1308.316738	2153.800049
1308.855853	2135.199951
1309.394912	2146.0
1309.933915	2141.0
1310.472862	2127.399902
1311.011753	2153.600098
1311.550588	2132.399902
1312.089367	2125.800049
1312.62809	2139.0
1313.166758	2113.800049
1313.70537	2142.600098
1314.243925	2110.600098
1314.782425	2142.199951
1315.320869	2128.399902
1315.859257	2132.0
1316.397589	2112.0
1316.935866	2132.399902
1317.474086	2107.600098
1318.012251	2109.600098
1318.55036	2120.199951
1319.088413	2125.399902
1319.62641	2123.199951
1320.164351	2109.0
1320.702236	2126.800049
1321.240066	2104.199951
1321.777839	2127.199951
1322.315557	2111.800049
1322.853219	2125.399902
1323.390826	2120.199951
1323.928376	2110.199951
1324.465871	2103.600098
1325.003309	2116.199951
1325.540692	2090.600098
1326.07802	2103.800049
1326.615291	2086.199951
1327.152506	2108.600098
1327.689666	2090.800049
1328.22677	2100.800049
1328.763818	2101.600098
1329.300811	2096.199951
1329.837747	2101.199951
1330.374628	2097.0
1330.911453	2095.199951
1331.448222	2091.800049
1331.984936	2106.199951
1332.521594	2092.800049
1333.058196	2087.199951
1333.594742	2095.399902
1334.131232	2109.600098
1334.667667	2089.199951
1335.204046	2089.600098
1335.740369	2075.0
1336.276637	2077.600098
1336.812848	2058.800049
1337.349004	2091.399902
1337.885105	2087.600098
1338.421149	2074.0
1338.957138	2097.600098
1339.493071	2076.600098
1340.028949	2069.399902
1340.56477	2053.199951
1341.100536	2076.399902
1341.636246	2095.800049
1342.171901	2060.600098
1342.7075	2067.600098
1343.243043	2069.0
1343.77853	2074.399902
1344.313962	2062.800049
1344.849338	2051.399902
1345.384659	2058.0
1345.919923	2054.199951
1346.455133	2067.800049
1346.990286	2076.0
1347.525384	2074.199951
1348.060426	2061.600098
1348.595412	2053.800049
1349.130343	2065.0
1349.665218	2067.800049
1350.200037	2061.600098
1350.734801	2073.600098
1351.269509	2049.399902
1351.804162	2063.399902
1352.338758	2070.199951
1352.8733	2044.199951
1353.407785	2058.600098
1353.942215	2041.199951
1354.476589	2054.600098
1355.010908	2047.0
1355.545171	2063.399902
1356.079379	2042.199951
1356.61353	2059.800049
1357.147627	2023.599976
1357.681667	2066.399902
1358.215652	2036.599976
1358.749582	2062.600098
1359.283456	2046.0
1359.817274	2059.399902
1360.351037	2038.599976
1360.884744	2044.800049
1361.418395	2046.400024
1361.951991	2035.800049
1362.485531	2039.599976
1363.019016	2039.199951
1363.552445	2057.199951
1364.085819	2020.800049
1364.619137	2063.399902
1365.1524	2041.0
1365.685607	2068.0
1366.218758	2056.199951
1366.751854	2029.599976
1367.284894	2032.599976
1367.817879	2032.800049
1368.350808	2019.400024
1368.883682	2020.800049
1369.4165	2029.400024
1369.949263	2063.800049
1370.48197	2076.399902
1371.014622	2049.199951
1371.547218	2026.400024
1372.079758	2025.199951
1372.612244	2030.800049
1373.144673	2024.599976
1373.677047	2028.199951
1374.209366	1984.0
1374.741629	2025.199951
1375.273836	2007.400024
1375.805989	2018.599976
1376.338085	2033.199951
1376.870126	2037.800049
1377.402112	1997.599976
1377.934042	2030.199951
1378.465917	2015.0
1378.997736	2019.800049
1379.5295	2020.400024
1380.061208	2020.800049
1380.592861	2019.199951
1381.124459	2034.199951
1381.656	2021.800049
1382.187487	2025.0
1382.718918	2017.400024
1383.250294	2018.599976
1383.781614	2026.400024
1384.312879	2014.400024
1384.844088	2021.800049
1385.375242	2029.400024
1385.90634	2054.600098
1386.437383	2052.600098
1386.968371	2079.399902
1387.499303	2176.399902
1388.03018	2669.800049
1388.561001	4176.399902
1389.091767	3870.199951
1389.622478	2453.800049
1390.153133	2133.600098
1390.683733	2060.0
1391.214277	2026.199951
1391.744766	2026.800049
1392.2752	2022.0
1392.805578	2008.599976
1393.335901	2017.0
1393.866168	2005.800049
1394.396381	2003.800049
1394.926537	1990.800049
1395.456639	2001.0
1395.986685	2005.599976
1396.516675	1994.400024
1397.046611	1998.800049
1397.576491	2001.0
1398.106315	1993.800049
1398.636084	1998.599976
1399.165798	1975.800049
1399.695457	1981.599976
1400.22506	1983.400024
1400.754608	1992.800049
1401.284101	1993.0
1401.813538	1975.199951
1402.34292	1986.0
1402.872247	1988.800049
1403.401518	1976.0
1403.930734	1972.400024
1404.459895	1968.0
1404.989	2001.599976
1405.51805	1985.800049
1406.047045	2004.199951
1406.575984	1979.800049
1407.104869	1968.199951
1407.633697	1981.599976
1408.162471	1996.599976
1408.691189	1986.400024
1409.219852	2046.800049
1409.74846	2126.600098
1410.277013	2151.600098
1410.80551	2053.399902
1411.333952	1976.400024
1411.862339	1998.0
1412.39067	1963.800049
1412.918946	1973.199951
1413.447167	1968.599976
1413.975333	1974.400024
1414.503444	1977.199951
1415.031499	1972.800049
1415.559499	1979.400024
1416.087444	1965.800049
1416.615333	1967.0
1417.143167	1971.400024
1417.670947	1969.400024
1418.19867	1953.400024
1418.726339	1973.599976
1419.253952	1943.599976
1419.781511	1973.800049
1420.309014	1945.0
1420.836461	1967.599976
1421.363854	1960.800049
1421.891191	1948.400024
1422.418474	1948.599976
1422.945701	1986.199951
1423.472872	1958.0
1423.999989	1953.199951
1424.52705	1966.199951
1425.054057	1954.800049
1425.581008	1959.0
1426.107904	1949.800049
1426.634745	1966.0
1427.16153	1955.400024
1427.688261	1960.800049
1428.214936	1951.0
1428.741556	1940.0
1429.268121	1943.0
1429.794631	1947.0
1430.321085	1955.199951
1430.847485	1940.599976
1431.373829	1936.0
1431.900118	1927.400024
1432.426353	1947.400024
1432.952532	1921.199951
1433.478655	1925.400024
1434.004724	1923.800049
1434.530738	1946.800049
1435.056696	1932.0
1435.5826	1928.800049
1436.108448	1938.400024
1436.634241	1945.400024
1437.159979	1921.599976
1437.685662	1926.400024
1438.21129	1936.0
1438.736863	1948.800049
1439.262381	1921.599976
1439.787843	1911.0
1440.313251	1908.599976
1440.838603	1921.0
1441.3639	1916.199951
1441.889143	1918.400024
1442.41433	1924.800049
1442.939462	1931.0
1443.464539	1918.599976
1443.989561	1920.599976
1444.514528	1914.0
1445.03944	1905.199951
1445.564297	1907.199951
1446.089099	1929.800049
1446.613846	1927.599976
1447.138537	1911.199951
1447.663174	1925.599976
1448.187756	1913.599976
1448.712282	1912.0
1449.236754	1901.800049
1449.761171	1903.0
1450.285532	1916.599976
1450.809839	1910.199951
1451.33409	1892.400024
1451.858287	1901.199951
1452.382428	1895.199951
1452.906515	1891.400024
1453.430546	1894.199951
1453.954523	1911.0
1454.478444	1895.0
1455.002311	1916.199951
1455.526123	1912.199951
1456.049879	1889.400024
1456.573581	1927.0
1457.097227	1898.599976
1457.620819	1904.400024
1458.144356	1906.599976
1458.667837	1913.400024
1459.191264	1885.199951
1459.714636	1897.400024
1460.237952	1903.400024
1460.761214	1879.0
1461.284421	1898.199951
1461.807573	1891.800049
1462.33067	1886.400024
1462.853712	1890.400024
1463.376699	1887.599976
1463.899632	1875.400024
1464.422509	1895.599976
1464.945331	1879.400024
1465.468099	1886.0
1465.990811	1884.599976
1466.513469	1889.599976
1467.036071	1882.199951
1467.558619	1896.400024
1468.081112	1890.800049
1468.60355	1884.400024
1469.125933	1881.0
1469.648261	1882.800049
1470.170534	1865.199951
1470.692752	1873.199951
1471.214916	1900.199951
1471.737024	1881.199951
1472.259078	1863.599976
1472.781077	1870.0
1473.303021	1868.800049
1473.82491	1880.800049
1474.346744	1860.199951
1474.868523	1867.800049
1475.390248	1874.400024
1475.911917	1879.599976
1476.433532	1868.800049
1476.955092	1865.0
1477.476597	1863.0
1477.998047	1883.400024
1478.519442	1856.199951
1479.040783	1856.0
1479.562068	1871.400024
1480.083299	1877.400024
1480.604475	1880.199951
1481.125596	1858.400024
1481.646663	1859.0
1482.167674	1856.800049
1482.688631	1866.400024
1483.209533	1857.199951
1483.73038	1857.0
1484.251172	1852.0
1484.771909	1859.400024
1485.292592	1859.199951
1485.81322	1844.400024
1486.333793	1872.400024
1486.854311	1851.800049
1487.374775	1875.199951
1487.895183	1846.800049
1488.415537	1846.0
1488.935836	1854.0
1489.456081	1856.0
1489.97627	1851.400024
1490.496405	1850.400024
1491.536511	1861.199951
1492.056481	1847.400024
1492.576397	1839.800049
1493.096258	1835.800049
1493.616064	1841.599976
1494.135816	1835.599976
1494.655513	1836.0
1495.175155	1849.800049
1495.694742	1837.800049
1496.214274	1816.400024
1496.733752	1853.199951
1497.253175	1832.599976
1497.772544	1830.199951
1498.291858	1830.800049
1498.811116	1846.199951
1499.330321	1834.0
1499.84947	1845.599976
1500.368565	1833.599976
1500.887605	1822.800049
1501.406591	1838.199951
1501.925521	1827.599976
1502.444397	1833.599976
1502.963219	1824.0
1503.481985	1821.199951
1504.000697	1808.199951
1504.519355	1844.0
1505.037957	1840.199951
1505.556505	1824.800049
1506.074999	1827.0
1506.593437	1833.599976
1507.111821	1829.400024
1507.63015	1826.0
1508.148425	1820.599976
1508.666645	1811.400024
1509.18481	1824.599976
1509.702921	1828.400024
1510.220977	1810.400024
1510.738979	1836.599976
1511.256925	1835.800049
1511.774817	1813.400024
1512.292655	1810.199951
1512.810438	1819.800049
1513.328166	1812.800049
1513.84584	1809.599976
1514.363459	1828.599976
1514.881023	1820.400024
1515.398533	1820.800049
1515.915988	1826.599976
1516.433389	1826.0
1516.950734	1829.599976
1517.468026	1815.800049
1517.985263	1806.599976
1518.502445	1808.400024
1519.019572	1822.0
1519.536645	1818.800049
1520.053664	1806.800049
1520.570628	1822.0
1521.087537	1819.599976
1521.604392	1798.599976
1522.121192	1812.0
1522.637937	1814.800049
1523.154628	1804.599976
1523.671265	1802.800049
1524.187847	1810.800049
1524.704374	1814.400024
1525.220847	1819.199951
1525.737265	1797.400024
1526.253629	1815.0
1526.769938	1817.0
1527.286192	1819.0
1527.802392	1815.400024
1528.318538	1796.599976
1528.834629	1827.0
1529.350666	1807.0
1529.866648	1808.800049
1530.382575	1802.800049
1530.898448	1810.599976
1531.414266	1806.400024
1531.93003	1803.400024
1532.44574	1802.599976
1532.961395	1819.0
1533.476995	1797.199951
1533.992541	1802.800049
1534.508033	1811.199951
1535.02347	1791.599976
1535.538852	1818.199951
1536.05418	1816.199951
1536.569454	1799.400024
1537.084673	1784.400024
1537.599837	1788.800049
1538.114947	1793.0
1538.630003	1821.199951
1539.145004	1816.400024
1539.659951	1807.400024
1540.174843	1804.800049
1540.689681	1798.199951
1541.204465	1812.599976
1541.719194	1778.400024
1542.233868	1816.199951
1542.748488	1802.199951
1543.263054	1804.0
1543.777565	1787.199951
1544.292022	1801.199951
1544.806424	1787.0
1545.320772	1806.0
1545.835066	1795.800049
1546.349305	1786.800049
1546.863489	1793.199951
1547.37762	1793.199951
1547.891696	1807.0
1548.405717	1794.400024
1548.919684	1805.0
1549.433597	1790.599976
1549.947455	1795.199951
1550.461259	1774.0
1550.975009	1801.599976
1551.488704	1803.599976
1552.002345	1778.800049
1552.515931	1796.800049
1553.029463	1783.800049
1553.542941	1787.599976
1554.056364	1806.599976
1554.569733	1802.599976
1555.083048	1795.199951
1555.596308	1789.599976
1556.109514	1792.599976
1556.622665	1797.199951
1557.135762	1799.400024
1557.648805	1788.400024
1558.161794	1797.400024
1558.674728	1789.400024
1559.187608	1794.800049
1559.700433	1799.800049
1560.213205	1784.400024
1560.725921	1776.199951
1561.238584	1785.0
1561.751192	1786.599976
1562.263746	1786.0
1562.776246	1789.199951
1563.288691	1783.800049
1563.801082	1776.0
1564.313419	1796.400024
1564.825701	1780.0
1565.337929	1782.800049
1565.850103	1774.0
1566.362223	1769.400024
1566.874288	1786.800049
1567.386299	1791.400024
1567.898256	1768.400024
1568.410158	1762.400024
1568.922007	1770.0
1569.4338	1761.199951
1569.94554	1778.599976
1570.457226	1769.199951
1570.968857	1793.400024
1571.480434	1776.599976
1571.991956	1759.599976
1572.503425	1775.599976
1573.014839	1783.199951
1573.526199	1755.400024
1574.037505	1774.400024
1574.548756	1775.599976
1575.059953	1781.400024
1575.571096	1773.800049
1576.082185	1777.400024
1576.59322	1763.599976
1577.1042	1768.800049
1577.615126	1746.199951
1578.125998	1767.599976
1578.636816	1763.400024
1579.14758	1747.199951
1579.658289	1785.0
1580.168944	1751.199951
1580.679545	1743.599976
1581.190092	1758.199951
1581.700585	1753.199951
1582.211023	1738.599976
1582.721407	1763.400024
1583.231737	1771.800049
1583.742013	1745.599976
1584.252235	1747.599976
1584.762403	1756.0
1585.272516	1766.199951
1585.782575	1764.199951
1586.292581	1764.400024
1586.802532	1741.400024
1587.312428	1754.599976
1587.822271	1747.0
1588.33206	1758.199951
1588.841794	1752.400024
1589.351474	1754.400024
1589.8611	1755.800049
1590.370672	1755.400024
1590.88019	1767.800049
1591.389654	1757.199951
1591.899064	1756.0
