1042.452273	1470.800049
1043.018714	1485.0
1043.585098	1468.400024
1044.151424	1454.199951
1044.717692	1471.400024
1045.283903	1472.0
1045.850056	1474.400024
1046.416151	1478.199951
1046.982188	1477.199951
1047.548167	1449.0
1048.114089	1461.599976
1048.679953	1464.400024
1049.24576	1473.199951
1049.811509	1458.800049
1050.3772	1464.400024
1050.942833	1460.599976
1051.508408	1464.400024
1052.073926	1457.800049
1052.639387	1451.400024
1053.204789	1455.0
1053.770134	1455.0
1054.335421	1447.599976
1054.900651	1460.800049
1055.465823	1446.800049
1056.030937	1463.800049
1056.595993	1448.800049
1057.160992	1444.400024
1057.725934	1452.800049
1058.290817	1440.199951
1058.855643	1466.400024
1059.420411	1440.800049
1059.985122	1447.599976
1060.549775	1452.0
1061.114371	1451.400024
1061.678908	1435.0
1062.243389	1444.599976
1062.807811	1452.199951
1063.372176	1442.400024
1063.936483	1449.800049
1064.500733	1466.599976
1065.064925	1445.800049
1065.62906	1447.800049
1066.193137	1448.800049
1066.757156	1433.0
1067.321118	1429.199951
1067.885022	1441.0
1068.448869	1434.400024
1069.012658	1446.0
1069.57639	1447.199951
1070.140063	1447.400024
1070.70368	1433.599976
1071.267239	1435.199951
1071.83074	1435.199951
1072.394184	1444.199951
1072.95757	1428.0
1073.520899	1431.400024
1074.08417	1435.599976
1074.647383	1434.599976
1075.21054	1424.0
1075.773638	1436.800049
1076.336679	1440.599976
1076.899663	1439.0
1077.462589	1428.599976
1078.025457	1436.199951
1078.588268	1430.800049
1079.151022	1445.400024
1079.713718	1422.599976
1080.276356	1419.800049
1080.838937	1441.199951
1081.401461	1434.599976
1081.963927	1440.800049
1082.526336	1441.599976
1083.088687	1419.400024
1083.650981	1420.800049
1084.213217	1433.400024
1084.775396	1418.599976
1085.337517	1427.400024
1085.899581	1435.800049
1086.461587	1405.800049
1087.023536	1413.199951
1087.585428	1415.599976
1088.147262	1427.0
1088.709039	1419.599976
1089.270758	1418.0
1089.83242	1412.800049
1090.394024	1416.599976
1090.955571	1421.199951
1091.517061	1407.599976
1092.078493	1413.599976
1092.639868	1396.199951
1093.201185	1417.800049
1093.762445	1396.0
1094.323648	1411.599976
1094.884793	1412.0
1095.445881	1399.599976
1096.006911	1403.0
1096.567884	1405.0
1097.1288	1414.199951
1097.689659	1395.199951
1098.25046	1395.199951
1098.811203	1410.400024
1099.37189	1408.800049
1099.932518	1399.599976
1100.49309	1400.0
1101.053604	1388.199951
1101.614061	1395.400024
1102.174461	1387.400024
1102.734803	1389.599976
1103.295088	1389.0
1103.855316	1393.0
1104.415486	1397.0
1104.975599	1394.199951
1105.535655	1393.800049
1106.095653	1401.599976
1106.655594	1387.0
1107.215478	1386.800049
1107.775305	1376.400024
1108.335074	1392.199951
1108.894786	1383.0
1109.45444	1402.599976
1110.014038	1382.800049
1110.573578	1397.599976
1111.133061	1379.400024
1111.692486	1376.599976
1112.251854	1368.0
1112.811165	1377.199951
1113.370419	1381.599976
1113.929616	1375.0
1114.488755	1380.800049
1115.047837	1363.800049
1115.606862	1383.0
1116.16583	1374.400024
1116.72474	1395.0
1117.283593	1378.199951
1117.842389	1364.800049
1118.401128	1382.599976
1118.959809	1373.400024
1119.518433	1366.0
1120.077	1380.0
1120.63551	1364.599976
1121.193963	1372.0
1121.752358	1367.800049
1122.310697	1366.400024
1122.868978	1359.800049
1123.427202	1373.599976
1123.985368	1373.400024
1124.543478	1354.400024
1125.10153	1370.400024
1125.659526	1361.599976
1126.217464	1374.599976
1126.775345	1337.0
1127.333168	1353.199951
1127.890935	1369.0
1128.448644	1369.199951
1129.006297	1363.800049
1129.563892	1355.599976
1130.12143	1364.199951
1130.678911	1360.0
1131.236335	1352.800049
1131.793701	1370.800049
1132.351011	1375.199951
1132.908263	1376.400024
1133.465458	1359.400024
1134.022597	1369.0
1134.579678	1357.400024
1135.136702	1364.0
1135.693669	1362.199951
1136.250578	1354.199951
1136.807431	1355.400024
1137.364227	1364.400024
1137.920965	1361.400024
1138.477647	1355.0
1139.034271	1361.400024
1139.590839	1350.599976
1140.147349	1361.0
1140.703802	1358.199951
1141.260198	1368.599976
1141.816537	1368.0
1142.37282	1355.0
1142.929045	1363.400024
1143.485213	1361.0
1144.041323	1372.0
1144.597377	1336.599976
1145.153374	1352.0
1145.709314	1360.0
1146.265197	1363.199951
1146.821023	1361.400024
1147.376792	1368.599976
1147.932503	1356.400024
1148.488158	1353.199951
1149.043756	1359.599976
1149.599297	1357.400024
1150.154781	1358.599976
1150.710207	1344.199951
1151.265577	1359.599976
1151.82089	1363.800049
1152.376146	1346.599976
1152.931345	1366.199951
1153.486487	1350.599976
1154.041572	1344.599976
1154.5966	1343.199951
1155.151571	1345.800049
1155.706485	1355.800049
1156.261342	1335.800049
1156.816142	1349.199951
1157.370885	1350.199951
1157.925572	1345.400024
1158.480201	1360.0
1159.034774	1347.400024
1159.589289	1364.199951
1160.143748	1359.199951
1160.698149	1360.800049
1161.252494	1348.400024
1161.806782	1335.400024
1162.361013	1350.0
1162.915187	1357.400024
1163.469304	1346.0
1164.023364	1342.599976
1164.577368	1343.599976
1165.131314	1338.199951
1165.685204	1343.0
1166.239036	1346.199951
1166.792812	1341.400024
1167.346531	1343.599976
1167.900193	1342.400024
1168.453798	1332.800049
1169.007347	1342.0
1169.560838	1339.599976
1170.114273	1350.800049
1170.66765	1350.800049
1171.220971	1357.800049
1171.774235	1332.800049
1172.327443	1347.199951
1172.880593	1339.400024
1173.433687	1333.0
1173.986723	1353.599976
1174.539703	1337.800049
1175.092626	1338.400024
1175.645493	1328.800049
1176.198302	1341.0
1176.751055	1337.400024
1177.303751	1332.400024
1177.85639	1337.0
1178.408972	1332.199951
1178.961498	1332.199951
1179.513966	1344.199951
1180.066378	1340.199951
1180.618733	1336.0
1181.171032	1343.400024
1181.723273	1333.599976
1182.275458	1330.800049
1182.827586	1321.400024
1183.379657	1332.199951
1183.931672	1313.400024
1184.48363	1330.199951
1185.035531	1337.199951
1185.587375	1324.400024
1186.139162	1330.400024
1186.690893	1325.400024
1187.242567	1335.400024
1187.794184	1321.199951
1188.345745	1329.0
1188.897249	1341.0
1189.448696	1312.199951
1190.000086	1330.400024
1190.55142	1331.599976
1191.102697	1329.599976
1191.653918	1328.800049
1192.205081	1326.400024
1192.756188	1325.0
1193.307238	1344.0
1193.858232	1327.0
1194.409169	1322.0
1194.960049	1322.800049
1195.510872	1321.199951
1196.061639	1316.400024
1196.612349	1330.800049
1197.163003	1334.199951
1197.713599	1327.0
1198.264139	1321.0
1198.814623	1330.599976
1199.36505	1321.800049
1199.91542	1310.599976
1200.465734	1316.0
1201.01599	1324.800049
1201.566191	1322.800049
1202.116334	1316.400024
1202.666421	1306.400024
1203.216452	1318.800049
1203.766425	1320.599976
1204.316343	1306.800049
1204.866203	1314.599976
1205.416007	1320.599976
1205.965754	1317.800049
1206.515445	1307.800049
1207.065079	1320.199951
1207.614657	1315.400024
1208.164177	1314.199951
1208.713642	1313.599976
1209.26305	1303.199951
1209.812401	1327.800049
1210.361695	1310.800049
1210.910933	1306.0
1211.460115	1302.800049
1212.00924	1313.800049
1212.558308	1293.800049
1213.10732	1311.400024
1213.656275	1311.0
1214.205174	1307.199951
1214.754016	1312.0
1215.302801	1292.599976
1215.85153	1291.599976
1216.400203	1303.0
1216.948819	1303.800049
1217.497378	1300.800049
1218.045881	1300.199951
1218.594327	1310.400024
1219.142717	1307.800049
1219.691051	1297.800049
1220.239327	1305.199951
1220.787548	1288.599976
1221.335712	1299.400024
1221.883819	1308.199951
1222.43187	1299.400024
1222.979864	1289.400024
1223.527802	1308.800049
1224.075683	1289.400024
1224.623508	1301.800049
1225.171277	1294.599976
1225.718989	1284.0
1226.266644	1306.199951
1226.814243	1287.599976
1227.361786	1297.800049
1227.909272	1309.0
1228.456702	1296.800049
1229.004075	1293.199951
1229.551392	1285.800049
1230.098652	1302.800049
1230.645856	1302.0
1231.193003	1289.0
1231.740094	1296.0
1232.287129	1300.599976
1232.834107	1294.199951
1233.381029	1292.400024
1233.927894	1287.800049
1234.474703	1285.0
1235.021455	1296.599976
1235.568151	1281.199951
1236.114791	1296.800049
1236.661374	1291.400024
1237.207901	1300.0
1237.754372	1284.0
1238.300786	1287.599976
1238.847144	1297.800049
1239.393445	1293.599976
1239.93969	1289.599976
1240.485879	1289.599976
1241.032011	1282.0
1241.578087	1285.0
1242.124106	1288.400024
1242.67007	1285.199951
1243.215976	1297.800049
1243.761827	1275.599976
1244.307621	1284.0
1244.853359	1276.599976
1245.39904	1286.599976
1245.944665	1281.800049
1246.490234	1284.400024
1247.035746	1289.199951
1247.581203	1299.400024
1248.126602	1281.0
1248.671946	1281.199951
1249.217233	1279.0
1249.762464	1278.599976
1250.307638	1271.199951
1250.852757	1301.599976
1251.397819	1285.800049
1251.942824	1285.199951
1252.487774	1298.800049
1253.032667	1273.800049
1253.577503	1283.0
1254.122284	1284.199951
1254.667008	1282.199951
1255.211676	1274.800049
1255.756288	1279.0
1256.300843	1279.400024
1256.845342	1275.599976
1257.389785	1286.400024
1257.934172	1271.800049
1258.478502	1282.199951
1259.022776	1276.0
1259.566994	1287.199951
1260.111156	1293.0
1260.655261	1273.800049
1261.199311	1273.800049
1261.743304	1269.599976
1262.28724	1270.199951
1262.831121	1273.800049
1263.374945	1279.599976
1263.918713	1289.800049
1264.462425	1301.599976
1265.006081	1306.599976
1265.54968	1307.199951
1266.093223	1292.599976
1266.636711	1280.599976
1267.180141	1287.0
1267.723516	1275.199951
1268.266835	1280.400024
1268.810097	1272.400024
1269.353303	1272.599976
1269.896453	1267.800049
1270.439547	1261.400024
1270.982584	1254.199951
1271.525566	1252.599976
1272.068491	1270.800049
1272.61136	1285.0
1273.154173	1273.0
1273.69693	1273.400024
1274.239631	1263.599976
1274.782275	1264.599976
1275.324864	1263.199951
1275.867396	1265.800049
1276.409872	1268.599976
1276.952292	1266.199951
1277.494656	1250.800049
1278.036964	1267.400024
1278.579215	1271.800049
1279.121411	1256.800049
1279.66355	1268.800049
1280.205634	1246.800049
1280.747661	1270.400024
1281.289632	1277.199951
1281.831547	1268.800049
1282.373406	1279.599976
1282.915209	1274.599976
1283.456955	1302.400024
1283.998646	1321.800049
1284.540281	1432.800049
1285.081859	1777.400024
1285.623381	1927.400024
1286.164848	1513.199951
1286.706258	1329.800049
1287.247612	1294.599976
1287.788911	1265.0
1288.330153	1263.199951
1288.871339	1255.599976
1289.412469	1249.199951
1289.953543	1263.199951
1290.494561	1259.599976
1291.035523	1246.800049
1291.576428	1255.800049
1292.117278	1248.599976
1292.658072	1247.800049
1293.19881	1243.0
1293.739492	1250.199951
1294.280118	1270.199951
1294.820687	1254.0
1295.361201	1263.199951
1295.901659	1247.800049
1296.442061	1246.599976
1296.982406	1250.400024
1297.522696	1249.199951
1298.06293	1246.599976
1298.603108	1245.599976
1299.143229	1256.800049
1299.683295	1250.400024
1300.223305	1251.599976
1300.763259	1254.400024
1301.303157	1247.199951
1301.842999	1245.800049
1302.382785	1241.0
1302.922515	1248.199951
1303.462189	1242.400024
1304.001807	1232.599976
1304.541369	1235.199951
1305.080875	1248.0
1305.620326	1243.400024
1306.15972	1236.599976
1306.699058	1242.0
1307.238341	1242.199951
1307.777567	1233.800049
1308.316738	1237.0
1308.855853	1244.400024
1309.394912	1255.599976
1309.933915	1235.800049
1310.472862	1234.599976
1311.011753	1246.800049
1311.550588	1231.400024
1312.089367	1234.0
1312.62809	1233.0
1313.166758	1229.400024
1313.70537	1241.0
1314.243925	1238.599976
1314.782425	1237.0
1315.320869	1243.599976
1315.859257	1229.199951
1316.397589	1228.599976
1316.935866	1240.400024
1317.474086	1237.0
1318.012251	1232.199951
1318.55036	1223.199951
1319.088413	1226.599976
1319.62641	1217.199951
1320.164351	1248.0
1320.702236	1231.400024
1321.240066	1228.599976
1321.777839	1239.0
1322.315557	1230.0
1322.853219	1228.800049
1323.390826	1223.599976
1323.928376	1232.0
1324.465871	1222.400024
1325.003309	1219.800049
1325.540692	1229.599976
1326.07802	1226.0
1326.615291	1235.0
1327.152506	1233.400024
1327.689666	1222.0
1328.22677	1227.400024
1328.763818	1217.199951
1329.300811	1237.599976
1329.837747	1225.199951
1330.374628	1220.0
1330.911453	1224.599976
1331.448222	1235.599976
1331.984936	1214.599976
1332.521594	1219.400024
1333.058196	1226.599976
1333.594742	1229.400024
1334.131232	1218.800049
1334.667667	1227.0
1335.204046	1221.199951
1335.740369	1221.599976
1336.276637	1218.199951
1336.812848	1232.0
1337.349004	1224.400024
1337.885105	1227.199951
1338.421149	1230.800049
1338.957138	1218.599976
1339.493071	1217.400024
1340.028949	1215.400024
1340.56477	1225.599976
1341.100536	1210.800049
1341.636246	1225.400024
1342.171901	1211.599976
1342.7075	1214.800049
1343.243043	1213.800049
1343.77853	1208.400024
1344.313962	1215.400024
1344.849338	1209.0
1345.384659	1215.599976
1345.919923	1196.400024
1346.455133	1221.199951
1346.990286	1215.199951
1347.525384	1209.400024
1348.060426	1219.800049
1348.595412	1220.800049
1349.130343	1212.0
1349.665218	1206.599976
1350.200037	1211.800049
1350.734801	1206.0
1351.269509	1208.400024
1351.804162	1209.599976
1352.338758	1201.599976
1352.8733	1209.199951
1353.407785	1218.599976
1353.942215	1212.800049
1354.476589	1218.199951
1355.010908	1216.800049
1355.545171	1214.599976
1356.079379	1207.199951
1356.61353	1204.199951
1357.147627	1190.400024
1357.681667	1210.0
1358.215652	1212.599976
1358.749582	1205.0
1359.283456	1213.400024
1359.817274	1220.0
1360.351037	1206.0
1360.884744	1210.199951
1361.418395	1211.400024
1361.951991	1212.0
1362.485531	1195.599976
1363.019016	1215.199951
1363.552445	1213.800049
1364.085819	1210.599976
1364.619137	1199.400024
1365.1524	1204.199951
1365.685607	1206.199951
1366.218758	1201.800049
1366.751854	1194.199951
1367.284894	1189.0
1367.817879	1210.0
1368.350808	1196.0
1368.883682	1193.599976
1369.4165	1194.199951
1369.949263	1209.0
1370.48197	1219.599976
1371.014622	1211.0
1371.547218	1193.599976
1372.079758	1193.800049
1372.612244	1194.0
1373.144673	1207.599976
1373.677047	1199.599976
1374.209366	1194.400024
1374.741629	1200.400024
1375.273836	1198.599976
1375.805989	1204.199951
1376.338085	1197.800049
1376.870126	1193.0
1377.402112	1180.400024
1378.465917	1184.400024
1378.997736	1207.0
1379.5295	1185.599976
1380.061208	1198.199951
1380.592861	1198.400024
1381.124459	1187.599976
1381.656	1194.400024
1382.187487	1196.199951
1382.718918	1200.400024
1383.250294	1192.0
1383.781614	1207.199951
1384.312879	1183.400024
1384.844088	1196.0
1385.375242	1197.599976
1385.90634	1213.400024
1386.437383	1218.199951
1386.968371	1233.0
1387.499303	1300.199951
1388.03018	1535.599976
1388.561001	2273.199951
1389.091767	2139.199951
1389.622478	1414.0
1390.153133	1255.800049
1390.683733	1213.199951
1391.214277	1194.199951
1391.744766	1204.400024
1392.2752	1193.199951
1392.805578	1181.800049
1393.335901	1184.400024
1393.866168	1197.800049
1394.396381	1184.400024
1394.926537	1187.0
1395.456639	1186.400024
1395.986685	1185.400024
1396.516675	1189.0
1397.046611	1193.800049
1397.576491	1182.0
1398.106315	1180.800049
1398.636084	1189.199951
1399.165798	1178.800049
1399.695457	1181.800049
1400.22506	1187.0
1400.754608	1182.599976
1401.284101	1178.199951
1401.813538	1172.0
1402.34292	1180.800049
1402.872247	1185.0
1403.401518	1188.400024
1403.930734	1188.800049
1404.459895	1174.599976
1404.989	1181.800049
1405.51805	1184.400024
1406.047045	1191.599976
1406.575984	1181.199951
1407.104869	1184.199951
1407.633697	1183.400024
1408.162471	1171.400024
1408.691189	1198.0
1409.219852	1200.599976
1409.74846	1244.199951
1410.277013	1259.400024
1410.80551	1218.199951
1411.333952	1186.400024
1411.862339	1190.199951
1412.39067	1168.0
1412.918946	1179.0
1413.447167	1177.599976
1413.975333	1178.400024
1414.503444	1160.800049
1415.031499	1175.400024
1415.559499	1183.0
1416.087444	1162.599976
1416.615333	1178.800049
1417.143167	1172.0
1417.670947	1177.199951
1418.19867	1166.599976
1418.726339	1173.199951
1419.253952	1181.599976
1419.781511	1168.199951
1420.309014	1171.800049
1420.836461	1167.0
1421.363854	1170.400024
1421.891191	1186.800049
1422.418474	1162.0
1422.945701	1169.0
1423.472872	1166.199951
1423.999989	1170.800049
1424.52705	1161.199951
1425.054057	1167.400024
1425.581008	1170.599976
1426.107904	1165.599976
1426.634745	1182.400024
1427.16153	1170.599976
1427.688261	1170.0
1428.214936	1160.599976
1428.741556	1165.599976
1429.268121	1170.199951
1429.794631	1172.800049
1430.321085	1153.800049
1430.847485	1159.800049
1431.373829	1165.800049
1431.900118	1157.400024
1432.426353	1163.599976
1432.952532	1169.400024
1433.478655	1164.0
1434.004724	1163.800049
1434.530738	1177.400024
1435.056696	1177.599976
1435.5826	1153.599976
1436.108448	1153.400024
1436.634241	1166.400024
1437.159979	1160.800049
1437.685662	1167.400024
1438.21129	1165.199951
1438.736863	1176.199951
1439.262381	1163.0
1439.787843	1170.199951
1440.313251	1164.599976
1440.838603	1160.400024
1441.3639	1157.400024
1441.889143	1159.0
1442.41433	1174.400024
1442.939462	1165.0
1443.464539	1156.800049
1443.989561	1168.0
1444.514528	1155.800049
1445.03944	1163.400024
1445.564297	1155.800049
1446.089099	1157.0
1446.613846	1156.0
1447.138537	1151.0
1447.663174	1160.199951
1448.187756	1160.400024
1448.712282	1150.599976
1449.236754	1156.199951
1449.761171	1149.199951
1450.285532	1151.400024
1450.809839	1146.800049
1451.33409	1154.0
1451.858287	1150.800049
1452.382428	1149.800049
1452.906515	1159.400024
1453.430546	1163.199951
1453.954523	1156.0
1454.478444	1156.800049
1455.002311	1147.0
1455.526123	1156.400024
1456.049879	1147.599976
1456.573581	1139.199951
1457.097227	1145.199951
1457.620819	1145.400024
1458.144356	1143.199951
1458.667837	1138.599976
1459.191264	1148.400024
1459.714636	1149.800049
1460.237952	1136.199951
1460.761214	1150.800049
1461.284421	1147.400024
1461.807573	1148.199951
1462.33067	1147.0
1462.853712	1144.800049
1463.376699	1146.400024
1463.899632	1154.0
1464.422509	1141.599976
1464.945331	1144.199951
1465.468099	1142.800049
1465.990811	1137.400024
1466.513469	1142.599976
1467.036071	1138.599976
1467.558619	1141.599976
1468.081112	1138.400024
1468.60355	1138.599976
1469.125933	1135.599976
1469.648261	1146.599976
1470.170534	1152.800049
1470.692752	1147.199951
1471.214916	1147.599976
1471.737024	1148.199951
1472.259078	1138.599976
1472.781077	1134.199951
1473.303021	1153.199951
1473.82491	1136.599976
1474.346744	1130.599976
1474.868523	1147.599976
1475.390248	1141.400024
1475.911917	1136.199951
1476.433532	1134.199951
1476.955092	1133.199951
1477.476597	1137.400024
1477.998047	1141.400024
1478.519442	1133.800049
1479.040783	1142.400024
1479.562068	1134.400024
1480.083299	1131.400024
1480.604475	1129.800049
1481.125596	1136.800049
1481.646663	1125.599976
1482.167674	1129.599976
1482.688631	1125.800049
1483.209533	1133.599976
1483.73038	1138.800049
1484.251172	1131.800049
1484.771909	1131.599976
1485.292592	1137.800049
1485.81322	1128.599976
1486.333793	1135.800049
1486.854311	1133.400024
1487.374775	1127.800049
1487.895183	1123.599976
1488.415537	1134.199951
1488.935836	1126.599976
1489.456081	1132.599976
1489.97627	1117.599976
1490.496405	1122.400024
1491.016485	1126.599976
1491.536511	1135.199951
1492.056481	1144.599976
1492.576397	1115.599976
1493.096258	1131.0
1493.616064	1131.400024
1494.135816	1129.400024
1494.655513	1124.0
1495.175155	1120.199951
1495.694742	1122.800049
1496.214274	1127.199951
1496.733752	1126.199951
1497.253175	1131.599976
1497.772544	1128.400024
1498.291858	1130.199951
1498.811116	1119.0
1499.330321	1128.0
1499.84947	1132.199951
1500.368565	1136.400024
1500.887605	1115.599976
1501.406591	1130.0
1501.925521	1118.400024
1502.444397	1131.800049
1502.963219	1118.599976
1503.481985	1130.199951
1504.000697	1115.0
1504.519355	1133.199951
1505.037957	1114.800049
1505.556505	1113.800049
1506.074999	1125.599976
1506.593437	1127.199951
1507.111821	1117.800049
1507.63015	1116.199951
1508.148425	1111.199951
1508.666645	1127.0
1509.18481	1113.800049
1509.702921	1119.800049
1510.220977	1130.800049
1510.738979	1123.800049
1511.256925	1120.800049
1511.774817	1115.400024
1512.292655	1117.800049
1512.810438	1118.599976
1513.328166	1122.199951
1513.84584	1122.599976
1514.363459	1117.0
1514.881023	1117.199951
1515.398533	1121.800049
1515.915988	1116.599976
1516.433389	1112.599976
1516.950734	1111.599976
1517.468026	1111.0
1517.985263	1119.199951
1518.502445	1112.400024
1519.019572	1108.0
1519.536645	1113.800049
1520.053664	1121.599976
1520.570628	1126.800049
1521.087537	1116.400024
1521.604392	1114.400024
1522.121192	1109.199951
1522.637937	1107.199951
1523.154628	1109.0
1523.671265	1110.400024
1524.187847	1119.599976
1524.704374	1104.199951
1525.220847	1103.400024
1525.737265	1106.400024
1526.253629	1111.599976
1526.769938	1126.800049
1527.286192	1105.400024
1527.802392	1115.400024
1528.318538	1112.199951
1528.834629	1116.199951
1529.350666	1116.199951
1529.866648	1111.0
1530.382575	1115.599976
1530.898448	1112.400024
1531.414266	1100.0
1531.93003	1115.800049
1532.44574	1105.800049
1532.961395	1114.199951
1533.476995	1106.400024
1533.992541	1116.400024
1534.508033	1112.0
1535.02347	1106.199951
1535.538852	1111.0
1536.05418	1112.0
1536.569454	1114.0
1537.084673	1117.599976
1537.599837	1120.400024
1538.114947	1113.400024
1538.630003	1110.599976
1539.145004	1115.0
1539.659951	1104.199951
1540.174843	1101.400024
1540.689681	1116.199951
1541.204465	1099.599976
1541.719194	1121.599976
1542.233868	1109.599976
1542.748488	1105.199951
1543.263054	1103.199951
1543.777565	1107.400024
1544.292022	1107.400024
1544.806424	1101.400024
1545.320772	1105.199951
1545.835066	1106.0
1546.349305	1114.0
1546.863489	1110.199951
1547.37762	1109.800049
1547.891696	1112.400024
1548.405717	1093.800049
1548.919684	1106.199951
1549.433597	1111.599976
1549.947455	1108.800049
1550.461259	1103.400024
1550.975009	1106.800049
1551.488704	1115.199951
1552.002345	1110.0
1552.515931	1101.199951
1553.029463	1110.199951
1553.542941	1107.599976
1554.056364	1118.0
1554.569733	1116.199951
1555.083048	1102.0
1555.596308	1098.800049
1556.109514	1105.0
1556.622665	1101.599976
1557.135762	1120.599976
1557.648805	1097.400024
1558.161794	1106.400024
1558.674728	1099.599976
1559.187608	1097.199951
1559.700433	1104.400024
1560.213205	1098.599976
1560.725921	1102.0
1561.238584	1101.199951
1561.751192	1093.800049
1562.263746	1092.0
1562.776246	1100.0
1563.288691	1112.599976
1563.801082	1110.800049
1564.313419	1090.199951
1564.825701	1099.599976
1565.337929	1110.800049
1565.850103	1105.0
1566.362223	1094.800049
1566.874288	1103.0
1567.386299	1101.199951
1567.898256	1094.800049
1568.410158	1100.400024
1568.922007	1108.0
1569.4338	1100.599976
1569.94554	1097.400024
1570.457226	1108.0
1570.968857	1101.800049
1571.480434	1103.800049
1571.991956	1098.400024
1572.503425	1098.599976
1573.014839	1101.0
1573.526199	1103.0
1574.037505	1100.800049
1574.548756	1101.0
1575.059953	1098.199951
1575.571096	1079.400024
1576.082185	1093.199951
1576.59322	1096.599976
1577.1042	1100.400024
1577.615126	1093.599976
1578.125998	1101.199951
1578.636816	1094.599976
1579.14758	1101.599976
1579.658289	1102.199951
1580.168944	1089.400024
1580.679545	1094.800049
1581.190092	1094.0
1581.700585	1085.599976
1582.211023	1090.199951
1582.721407	1104.199951
1583.231737	1088.599976
1583.742013	1110.599976
1584.252235	1106.800049
1584.762403	1099.0
1585.272516	1087.0
1585.782575	1093.800049
1586.292581	1097.199951
1586.802532	1087.199951
1587.312428	1092.599976
1587.822271	1098.400024
1588.33206	1096.0
1588.841794	1087.800049
1589.351474	1093.400024
1589.8611	1092.400024
1590.370672	1090.199951
1590.88019	1091.400024
1591.389654	1084.0
1591.899064	1091.400024
1592.408419	1090.199951
