1042.452273	8875.0
1043.018714	8935.400391
1043.585098	8850.200195
1044.151424	8879.200195
1044.717692	8896.0
1045.283903	8894.0
1045.850056	8894.200195
1046.416151	8870.0
1046.982188	8864.0
1047.548167	8911.599609
1048.114089	8861.0
1048.679953	8880.200195
1049.24576	8849.400391
1049.811509	8913.0
1050.3772	8842.400391
1050.942833	8897.400391
1051.508408	8802.400391
1052.073926	8871.799805
1052.639387	8794.799805
1053.204789	8834.799805
1053.770134	8846.799805
1054.335421	8863.599609
1054.900651	8850.0
1055.465823	8862.599609
1056.030937	8826.799805
1056.595993	8866.0
1057.160992	8809.400391
1057.725934	8880.0
1058.290817	8823.400391
1058.855643	8828.400391
1059.420411	8765.400391
1059.985122	8816.400391
1060.549775	8745.400391
1061.114371	8811.799805
1061.678908	8797.400391
1062.243389	8819.0
1062.807811	8783.400391
1063.372176	8806.599609
1063.936483	8733.799805
1064.500733	8744.799805
1065.064925	8787.599609
1065.62906	8794.599609
1066.193137	8750.599609
1066.757156	8786.599609
1067.321118	8683.0
1067.885022	8777.400391
1068.448869	8719.599609
1069.012658	8748.400391
1069.57639	8677.599609
1070.140063	8721.0
1070.70368	8723.200195
1071.267239	8773.200195
1071.83074	8742.799805
1072.394184	8713.599609
1072.95757	8696.400391
1073.520899	8709.200195
1074.08417	8671.599609
1074.647383	8670.200195
1075.21054	8713.0
1075.773638	8688.200195
1076.336679	8668.599609
1076.899663	8705.200195
1077.462589	8634.0
1078.025457	8678.200195
1078.588268	8682.200195
1079.151022	8682.200195
1079.713718	8597.599609
1080.276356	8623.799805
1080.838937	8656.599609
1081.401461	8656.400391
1081.963927	8620.400391
1082.526336	8582.799805
1083.088687	8591.599609
1083.650981	8639.400391
1084.213217	8595.400391
1084.775396	8581.0
1085.337517	8520.599609
1085.899581	8572.599609
1086.461587	8549.599609
1087.023536	8555.200195
1087.585428	8580.200195
1088.147262	8518.200195
1088.709039	8530.799805
1089.270758	8554.400391
1089.83242	8528.0
1090.394024	8479.599609
1090.955571	8532.200195
1091.517061	8488.0
1092.078493	8474.0
1092.639868	8469.200195
1093.201185	8501.200195
1093.762445	8523.599609
1094.323648	8498.599609
1094.884793	8478.799805
1095.445881	8430.599609
1096.006911	8433.799805
1096.567884	8416.599609
1097.1288	8429.599609
1097.689659	8398.400391
1098.25046	8444.599609
1098.811203	8380.599609
1099.37189	8423.0
1099.932518	8372.0
1100.49309	8375.0
1101.053604	8351.0
1101.614061	8320.599609
1102.174461	8358.200195
1102.734803	8322.0
1103.295088	8297.599609
1103.855316	8352.0
1104.415486	8279.799805
1104.975599	8321.200195
1105.535655	8252.400391
1106.095653	8313.599609
1106.655594	8279.200195
1107.215478	8303.400391
1107.775305	8232.599609
1108.335074	8260.0
1108.894786	8264.400391
1109.45444	8265.799805
1110.014038	8219.400391
1110.573578	8190.0
1111.133061	8193.200195
1111.692486	8246.200195
1112.251854	8170.0
1112.811165	8187.0
1113.370419	8128.600098
1113.929616	8179.0
1114.488755	8152.0
1115.047837	8135.399902
1115.606862	8147.799805
1116.16583	8196.0
1116.72474	8144.399902
1117.283593	8147.600098
1117.842389	8130.399902
1118.401128	8133.600098
1118.959809	8133.799805
1119.518433	8118.399902
1120.077	8061.600098
1120.63551	8150.600098
1121.193963	8119.600098
1121.752358	8162.200195
1122.310697	8122.200195
1122.868978	8094.799805
1123.427202	8049.0
1123.985368	8103.0
1124.543478	8071.200195
1125.10153	8115.200195
1125.659526	8035.399902
1126.217464	8098.399902
1126.775345	8068.399902
1127.333168	8087.799805
1127.890935	8097.799805
1128.448644	8089.600098
1129.006297	8049.0
1129.563892	8056.799805
1130.12143	8001.600098
1130.678911	8075.200195
1131.236335	7998.200195
1131.793701	8082.0
1132.351011	7991.399902
1132.908263	8080.200195
1133.465458	7942.399902
1134.022597	8068.0
1134.579678	8018.399902
1135.136702	7995.200195
1135.693669	7994.200195
1136.250578	8066.0
1136.807431	7965.200195
1137.364227	8051.600098
1137.920965	8023.200195
1138.477647	7991.399902
1139.034271	7988.399902
1139.590839	8040.0
1140.147349	7987.200195
1140.703802	8018.399902
1141.260198	7999.799805
1141.816537	8000.200195
1142.37282	8010.600098
1142.929045	8027.399902
1143.485213	8011.200195
1144.041323	7976.399902
1144.597377	7991.799805
1145.153374	8000.799805
1145.709314	7967.399902
1146.265197	7998.0
1146.821023	8026.0
1147.376792	7984.200195
1147.932503	8007.399902
1148.488158	8021.200195
1149.043756	7947.200195
1149.599297	7999.799805
1150.154781	7989.399902
1150.710207	7968.799805
1151.265577	7988.200195
1151.82089	7997.200195
1152.376146	8021.0
1152.931345	7977.799805
1153.486487	7969.200195
1154.041572	7952.399902
1154.5966	7912.0
1155.151571	8034.0
1155.706485	8022.200195
1156.261342	7997.0
1156.816142	7998.0
1157.370885	7980.799805
1157.925572	8006.600098
1158.480201	8003.0
1159.034774	7983.799805
1159.589289	7980.0
1160.143748	7914.0
1160.698149	7954.0
1161.252494	7966.399902
1161.806782	7985.200195
1162.361013	7975.799805
1162.915187	7952.600098
1163.469304	7964.0
1164.023364	7905.600098
1164.577368	7921.799805
1165.131314	7948.200195
1165.685204	7898.0
1166.239036	7896.600098
1166.792812	7949.600098
1167.346531	7911.399902
1167.900193	7920.399902
1168.453798	7857.399902
1169.007347	7883.600098
1169.560838	7920.0
1170.114273	7875.399902
1170.66765	7886.0
1171.220971	7918.200195
1171.774235	7859.799805
1172.327443	7901.0
1172.880593	7917.399902
1173.433687	7853.399902
1173.986723	7876.399902
1174.539703	7872.799805
1175.092626	7811.600098
1175.645493	7858.600098
1176.198302	7892.200195
1176.751055	7844.799805
1177.303751	7809.0
1177.85639	7892.0
1178.408972	7855.0
1178.961498	7856.799805
1179.513966	7859.399902
1180.066378	7859.0
1180.618733	7803.0
1181.171032	7848.200195
1181.723273	7838.399902
1182.275458	7856.799805
1182.827586	7806.799805
1183.379657	7808.600098
1183.931672	7785.799805
1184.48363	7816.0
1185.035531	7818.0
1185.587375	7759.600098
1186.139162	7801.600098
1186.690893	7771.600098
1187.242567	7760.600098
1187.794184	7757.200195
1188.345745	7779.399902
1188.897249	7737.0
1189.448696	7763.399902
1190.000086	7733.399902
1190.55142	7746.200195
1191.102697	7714.0
1191.653918	7801.399902
1192.205081	7746.200195
1192.756188	7736.0
1193.307238	7733.799805
1193.858232	7685.399902
1194.409169	7702.200195
1194.960049	7717.399902
1195.510872	7674.600098
1196.061639	7722.200195
1196.612349	7663.200195
1197.163003	7709.0
1197.713599	7662.0
1198.264139	7718.0
1198.814623	7665.799805
1199.36505	7672.600098
1199.91542	7666.799805
1200.465734	7685.600098
1201.01599	7658.0
1201.566191	7648.799805
1202.116334	7651.399902
1202.666421	7652.200195
1203.216452	7668.799805
1203.766425	7640.600098
1204.316343	7613.0
1204.866203	7647.600098
1205.416007	7629.0
1205.965754	7629.600098
1206.515445	7580.799805
1207.065079	7599.0
1207.614657	7612.200195
1208.164177	7601.799805
1208.713642	7571.399902
1209.26305	7545.399902
1209.812401	7598.0
1210.361695	7574.600098
1210.910933	7567.0
1211.460115	7534.200195
1212.00924	7570.399902
1212.558308	7550.799805
1213.10732	7554.600098
1213.656275	7503.0
1214.205174	7555.799805
1214.754016	7516.0
1215.302801	7517.600098
1215.85153	7510.799805
1216.400203	7518.600098
1216.948819	7534.0
1217.497378	7556.799805
1218.045881	7513.600098
1218.594327	7445.200195
1219.142717	7511.200195
1219.691051	7487.600098
1220.239327	7519.799805
1220.787548	7417.200195
1221.335712	7494.799805
1221.883819	7419.200195
1222.43187	7497.799805
1222.979864	7429.200195
1223.527802	7430.0
1224.075683	7417.799805
1224.623508	7435.600098
1225.171277	7379.200195
1225.718989	7469.799805
1226.266644	7425.0
1226.814243	7463.0
1227.361786	7421.799805
1227.909272	7428.799805
1228.456702	7411.600098
1229.004075	7392.600098
1229.551392	7419.799805
1230.098652	7390.799805
1230.645856	7400.799805
1231.193003	7402.200195
1231.740094	7411.600098
1232.287129	7388.200195
1232.834107	7346.399902
1233.381029	7380.200195
1233.927894	7383.200195
1234.474703	7376.600098
1235.021455	7371.600098
1235.568151	7354.399902
1236.114791	7375.799805
1236.661374	7324.600098
1237.207901	7333.0
1237.754372	7319.600098
1238.300786	7358.0
1238.847144	7332.799805
1239.393445	7310.399902
1239.93969	7292.600098
1240.485879	7343.200195
1241.032011	7303.600098
1241.578087	7306.399902
1242.124106	7273.399902
1242.67007	7322.200195
1243.215976	7289.200195
1243.761827	7285.0
1244.307621	7293.600098
1244.853359	7276.600098
1245.39904	7309.600098
1245.944665	7339.600098
1246.490234	7288.799805
1247.035746	7296.200195
1247.581203	7293.600098
1248.126602	7265.799805
1248.671946	7266.799805
1249.217233	7225.799805
1249.762464	7280.399902
1250.307638	7290.0
1250.852757	7236.799805
1251.397819	7218.0
1251.942824	7238.0
1252.487774	7213.600098
1253.032667	7238.399902
1253.577503	7206.600098
1254.122284	7250.399902
1254.667008	7209.600098
1255.211676	7246.799805
1255.756288	7191.0
1256.300843	7191.399902
1256.845342	7178.399902
1257.389785	7195.0
1257.934172	7195.399902
1258.478502	7189.799805
1259.022776	7205.0
1259.566994	7180.799805
1260.111156	7195.0
1260.655261	7157.399902
1261.199311	7171.600098
1261.743304	7126.600098
1262.28724	7097.799805
1262.831121	7161.799805
1263.374945	7151.600098
1263.918713	7157.799805
1264.462425	7119.399902
1265.006081	7195.200195
1265.54968	7110.799805
1266.093223	7074.799805
1266.636711	7088.0
1267.180141	7110.0
1267.723516	7127.200195
1268.266835	7102.200195
1268.810097	7116.0
1269.353303	7076.799805
1269.896453	7070.200195
1270.439547	7069.399902
1270.982584	7123.200195
1271.525566	7036.0
1272.068491	7110.0
1272.61136	7059.600098
1273.154173	7084.399902
1273.69693	7081.600098
1274.239631	7107.799805
1274.782275	7025.200195
1275.324864	7045.0
1275.867396	7043.0
1276.409872	7045.0
1276.952292	6997.200195
1277.494656	7068.0
1278.036964	7025.600098
1278.579215	7055.399902
1279.121411	7036.200195
1279.66355	7010.399902
1280.205634	6975.600098
1280.747661	7033.799805
1281.289632	6977.399902
1281.831547	6978.399902
1282.373406	6978.399902
1282.915209	7013.399902
1283.456955	6989.600098
1283.998646	6933.200195
1284.540281	7023.600098
1285.081859	7028.0
1285.623381	7190.799805
1286.164848	7035.600098
1286.706258	6983.799805
1287.247612	6948.799805
1287.788911	6940.0
1288.330153	6946.799805
1288.871339	6920.200195
1289.412469	6912.799805
1289.953543	6948.799805
1290.494561	6901.399902
1291.035523	6910.799805
1291.576428	6948.600098
1292.117278	6885.799805
1292.658072	6869.399902
1293.19881	6883.799805
1293.739492	6894.600098
1294.280118	6854.0
1294.820687	6895.200195
1295.361201	6867.200195
1295.901659	6869.799805
1296.442061	6814.0
1296.982406	6842.0
1297.522696	6831.799805
1298.06293	6871.200195
1298.603108	6791.799805
1299.143229	6861.600098
1299.683295	6828.399902
1300.223305	6879.600098
1300.763259	6793.799805
1301.303157	6832.799805
1301.842999	6827.399902
1302.382785	6817.200195
1302.922515	6815.399902
1303.462189	6812.0
1304.001807	6819.200195
1304.541369	6835.200195
1305.080875	6765.0
1305.620326	6831.399902
1306.15972	6759.600098
1306.699058	6758.399902
1307.238341	6768.600098
1307.777567	6767.600098
1308.316738	6756.600098
1308.855853	6744.200195
1309.394912	6758.0
1309.933915	6760.399902
1310.472862	6795.600098
1311.011753	6750.399902
1311.550588	6773.799805
1312.089367	6712.200195
1312.62809	6720.0
1313.166758	6746.799805
1313.70537	6722.0
1314.243925	6745.399902
1314.782425	6722.0
1315.320869	6691.799805
1315.859257	6724.600098
1316.397589	6685.600098
1316.935866	6742.600098
1317.474086	6702.399902
1318.012251	6734.799805
1318.55036	6644.399902
1319.088413	6687.399902
1319.62641	6660.799805
1320.164351	6655.799805
1320.702236	6696.600098
1321.240066	6615.0
1321.777839	6725.200195
1322.315557	6659.200195
1322.853219	6640.399902
1323.390826	6650.600098
1323.928376	6636.799805
1324.465871	6583.399902
1325.003309	6597.799805
1325.540692	6574.200195
1326.07802	6635.399902
1326.615291	6620.399902
1327.152506	6663.0
1327.689666	6613.0
1328.22677	6610.799805
1328.763818	6600.399902
1329.300811	6591.399902
1329.837747	6608.399902
1330.374628	6563.799805
1330.911453	6597.0
1331.448222	6577.799805
1331.984936	6589.200195
1332.521594	6558.799805
1333.058196	6550.799805
1333.594742	6568.200195
1334.131232	6567.399902
1334.667667	6516.600098
1335.204046	6530.200195
1335.740369	6495.799805
1336.276637	6530.200195
1336.812848	6499.399902
1337.349004	6584.600098
1337.885105	6545.399902
1338.421149	6564.399902
1338.957138	6567.200195
1339.493071	6534.399902
1340.028949	6522.399902
1340.56477	6495.799805
1341.100536	6499.0
1341.636246	6499.600098
1342.171901	6477.600098
1342.7075	6462.399902
1343.243043	6491.200195
1343.77853	6446.600098
1344.313962	6477.0
1344.849338	6451.600098
1345.384659	6510.200195
1345.919923	6450.600098
1346.455133	6460.399902
1346.990286	6442.399902
1347.525384	6483.200195
1348.060426	6424.600098
1348.595412	6404.399902
1349.130343	6418.399902
1349.665218	6449.600098
1350.200037	6470.399902
1350.734801	6459.600098
1351.269509	6413.600098
1351.804162	6420.600098
1352.338758	6420.399902
1352.8733	6367.600098
1353.407785	6428.200195
1353.942215	6362.399902
1354.476589	6434.600098
1355.010908	6351.799805
1355.545171	6351.799805
1356.079379	6340.0
1356.61353	6391.600098
1357.147627	6279.0
1357.681667	6370.399902
1358.215652	6342.200195
1358.749582	6383.799805
1359.283456	6325.600098
1359.817274	6344.600098
1360.351037	6286.399902
1360.884744	6338.799805
1361.418395	6320.399902
1361.951991	6291.399902
1362.485531	6332.200195
1363.019016	6293.0
1363.552445	6373.600098
1364.085819	6319.0
1364.619137	6331.799805
1365.1524	6277.0
1365.685607	6306.0
1366.218758	6282.799805
1366.751854	6276.600098
1367.284894	6264.399902
1367.817879	6352.0
1368.350808	6268.799805
1368.883682	6297.0
1369.4165	6298.0
1369.949263	6308.600098
1370.48197	6270.399902
1371.014622	6253.399902
1371.547218	6218.399902
1372.079758	6233.600098
1372.612244	6250.0
1373.144673	6244.799805
1373.677047	6275.799805
1374.209366	6221.200195
1374.741629	6230.600098
1375.273836	6199.399902
1375.805989	6222.600098
1376.338085	6169.399902
1376.870126	6231.600098
1377.402112	6190.799805
1377.934042	6203.399902
1378.465917	6174.399902
1378.997736	6212.0
1379.5295	6191.399902
1380.061208	6220.399902
1380.592861	6189.399902
1381.124459	6150.200195
1381.656	6190.799805
1382.187487	6162.799805
1382.718918	6167.0
1383.250294	6178.799805
1383.781614	6172.799805
1384.312879	6112.0
1384.844088	6133.799805
1385.375242	6107.399902
1385.90634	6128.0
1386.437383	6113.799805
1386.968371	6156.799805
1387.499303	6152.399902
1388.03018	6195.399902
1388.561001	6310.799805
1389.091767	6410.600098
1389.622478	6173.200195
1390.153133	6094.600098
1390.683733	6118.200195
1391.214277	6119.799805
1391.744766	6115.200195
1392.2752	6096.0
1392.805578	6131.399902
1393.335901	6078.0
1393.866168	6089.200195
1394.396381	6056.200195
1394.926537	6089.200195
1395.456639	6041.799805
1395.986685	6101.200195
1396.516675	6039.399902
1397.046611	6118.0
1397.576491	6066.200195
1398.106315	6072.0
1398.636084	6059.200195
1399.165798	6053.200195
1399.695457	6053.200195
1400.22506	6003.799805
1400.754608	6039.600098
1401.284101	6014.600098
1401.813538	6069.600098
1402.34292	5993.0
1402.872247	6040.600098
1403.401518	6013.200195
1403.930734	6015.399902
1404.459895	5970.399902
1404.989	6046.0
1405.51805	5979.200195
1406.047045	6018.799805
1406.575984	6027.0
1407.104869	6019.799805
1407.633697	5989.399902
1408.162471	6004.0
1408.691189	6040.399902
1409.219852	5993.200195
1409.74846	6040.399902
1410.277013	5977.399902
1410.80551	6043.799805
1411.333952	5960.200195
1411.862339	6006.799805
1412.39067	5942.399902
1412.918946	5990.600098
1413.447167	5953.600098
1413.975333	5958.600098
1414.503444	5974.0
1415.031499	5985.0
1415.559499	5941.200195
1416.087444	5953.0
1416.615333	5923.200195
1417.143167	5960.600098
1417.670947	5955.200195
1418.19867	5914.799805
1418.726339	5980.600098
1419.253952	5914.200195
1419.781511	5922.399902
1420.309014	5899.0
1420.836461	5903.600098
1421.363854	5936.799805
1421.891191	5903.0
1422.418474	5915.799805
1422.945701	5905.799805
1423.472872	5899.399902
1423.999989	5923.799805
1424.52705	5893.0
1425.054057	5889.399902
1425.581008	5917.200195
1426.107904	5879.600098
1426.634745	5862.0
1427.16153	5879.0
1427.688261	5892.600098
1428.214936	5895.200195
1428.741556	5849.600098
1429.268121	5862.399902
1429.794631	5871.200195
1430.321085	5815.0
1430.847485	5841.399902
1431.373829	5841.200195
1431.900118	5838.200195
1432.426353	5828.600098
1432.952532	5808.799805
1433.478655	5836.0
1434.004724	5779.600098
1434.530738	5838.0
1435.056696	5819.399902
1435.5826	5826.799805
1436.108448	5787.0
1436.634241	5831.399902
1437.159979	5813.600098
1437.685662	5810.200195
1438.21129	5797.600098
1438.736863	5791.399902
1439.262381	5789.0
1439.787843	5740.200195
1440.313251	5796.0
1440.838603	5761.600098
1441.3639	5768.0
1441.889143	5768.399902
1442.41433	5747.600098
1442.939462	5726.799805
1443.464539	5760.600098
1443.989561	5756.0
1444.514528	5728.799805
1445.03944	5714.600098
1445.564297	5688.0
1446.089099	5737.399902
1446.613846	5719.399902
1447.138537	5753.0
1447.663174	5690.600098
1448.187756	5679.799805
1448.712282	5774.0
1449.236754	5685.399902
1449.761171	5718.799805
1450.285532	5721.799805
1450.809839	5661.799805
1451.33409	5708.600098
1451.858287	5678.399902
1452.382428	5672.600098
1452.906515	5671.0
1453.430546	5651.0
1453.954523	5676.600098
1454.478444	5693.399902
1455.002311	5622.0
1455.526123	5664.600098
1456.049879	5654.600098
1456.573581	5699.600098
1457.097227	5610.399902
1457.620819	5684.200195
1458.144356	5646.200195
1458.667837	5654.399902
1459.191264	5621.200195
1459.714636	5616.0
1460.237952	5659.0
1460.761214	5619.200195
1461.284421	5615.200195
1461.807573	5607.399902
1462.33067	5610.200195
1462.853712	5658.0
1463.376699	5604.600098
1463.899632	5622.399902
1464.422509	5594.799805
1464.945331	5578.399902
1465.468099	5591.600098
1465.990811	5597.600098
1466.513469	5533.799805
1467.036071	5589.0
1467.558619	5556.0
1468.081112	5566.0
1468.60355	5573.200195
1469.125933	5597.0
1469.648261	5554.799805
1470.170534	5589.0
1470.692752	5552.600098
1471.214916	5549.399902
1471.737024	5558.399902
1472.259078	5536.399902
1472.781077	5515.399902
1473.303021	5497.200195
1473.82491	5532.0
1474.346744	5520.200195
1474.868523	5547.799805
1475.390248	5522.200195
1475.911917	5534.600098
1476.433532	5486.200195
1476.955092	5533.0
1477.476597	5505.200195
1477.998047	5474.0
1478.519442	5448.799805
1479.040783	5464.600098
1479.562068	5459.600098
1480.083299	5445.0
1480.604475	5475.600098
1481.125596	5490.0
1481.646663	5475.0
1482.167674	5416.399902
1482.688631	5449.799805
1483.209533	5431.799805
1483.73038	5433.600098
1484.251172	5445.600098
1484.771909	5451.799805
1485.292592	5408.200195
1485.81322	5401.600098
1486.333793	5449.799805
1486.854311	5417.0
1487.374775	5447.0
1487.895183	5360.600098
1488.415537	5387.799805
1488.935836	5397.200195
1489.456081	5395.799805
1489.97627	5387.799805
1490.496405	5405.600098
1491.016485	5361.799805
1491.536511	5383.200195
1492.056481	5397.600098
1492.576397	5348.200195
1493.096258	5346.600098
1493.616064	5370.600098
1494.135816	5392.0
1494.655513	5342.399902
1495.175155	5338.799805
1495.694742	5345.600098
1496.214274	5325.0
1496.733752	5293.600098
1497.253175	5319.200195
1497.772544	5319.799805
1498.291858	5327.399902
1498.811116	5304.200195
1499.330321	5313.200195
1499.84947	5267.799805
1500.368565	5311.0
1500.887605	5302.0
1501.406591	5272.0
1501.925521	5317.600098
1502.444397	5271.600098
1502.963219	5300.0
1503.481985	5320.200195
1504.000697	5276.600098
1504.519355	5268.600098
1505.037957	5224.600098
1505.556505	5287.600098
1506.074999	5271.399902
1506.593437	5242.799805
1507.111821	5260.0
1507.63015	5246.399902
1508.148425	5223.799805
1508.666645	5235.799805
1509.18481	5249.600098
1509.702921	5220.0
1510.220977	5253.600098
1510.738979	5245.600098
1511.256925	5238.399902
1511.774817	5242.0
1512.292655	5255.799805
1512.810438	5238.799805
1513.328166	5221.200195
1513.84584	5202.600098
1514.363459	5260.600098
1514.881023	5211.399902
1515.398533	5172.799805
1515.915988	5199.200195
1516.433389	5190.799805
1516.950734	5217.399902
1517.468026	5167.399902
1517.985263	5183.0
1518.502445	5182.799805
1519.019572	5171.600098
1519.536645	5147.200195
1520.053664	5179.799805
1520.570628	5184.0
1521.087537	5131.799805
1521.604392	5194.0
1522.121192	5169.799805
1522.637937	5163.799805
1523.154628	5195.399902
1523.671265	5151.200195
1524.187847	5169.200195
1524.704374	5157.399902
1525.220847	5164.399902
1525.737265	5143.200195
1526.253629	5155.0
1526.769938	5156.399902
1527.286192	5140.200195
1527.802392	5108.799805
1528.318538	5135.0
1528.834629	5151.600098
1529.350666	5112.399902
1529.866648	5097.600098
1530.382575	5138.600098
1530.898448	5119.200195
1531.414266	5129.399902
1531.93003	5125.0
1532.44574	5122.0
1532.961395	5135.600098
1533.476995	5121.600098
1533.992541	5085.600098
1534.508033	5089.399902
1535.02347	5099.200195
1535.538852	5092.799805
1536.05418	5086.200195
1536.569454	5124.399902
1537.084673	5068.200195
1537.599837	5124.200195
1538.114947	5066.0
1538.630003	5095.0
1539.145004	5134.0
1539.659951	5090.0
1540.174843	5063.600098
1540.689681	5096.200195
1541.204465	5068.799805
1541.719194	5074.0
1542.233868	5088.200195
1542.748488	5083.200195
1543.263054	5099.200195
1543.777565	5055.399902
1544.292022	5087.399902
1544.806424	5039.200195
1545.320772	5057.399902
1545.835066	5041.799805
1546.349305	5024.399902
1546.863489	5055.200195
1547.37762	5026.200195
1547.891696	5071.799805
1548.405717	5027.799805
1548.919684	5028.399902
1549.433597	5027.399902
1549.947455	5070.0
1550.461259	5033.799805
1550.975009	5020.600098
1551.488704	5021.399902
1552.002345	5015.799805
1552.515931	5076.600098
1553.029463	4975.399902
1553.542941	5035.600098
1554.056364	5025.0
1554.569733	5019.0
1555.083048	4989.0
1555.596308	5018.399902
1556.109514	5028.0
1556.622665	5035.200195
1557.135762	5033.600098
1557.648805	4986.600098
1558.161794	5015.799805
1558.674728	4975.399902
1559.187608	5000.399902
1559.700433	4949.200195
1560.213205	5013.600098
1560.725921	4958.200195
1561.238584	5025.799805
1561.751192	4990.600098
1562.263746	4965.799805
1562.776246	4990.200195
1563.288691	4979.600098
1563.801082	4993.200195
1564.313419	4952.0
1564.825701	4988.0
1565.337929	4945.0
1565.850103	4988.0
1566.362223	4946.0
1566.874288	4957.0
1567.386299	4996.799805
1567.898256	4973.600098
1568.410158	4904.600098
1568.922007	4912.399902
1569.4338	4943.0
1569.94554	4912.399902
1570.457226	4934.399902
1570.968857	4909.600098
1571.480434	4962.600098
1571.991956	4892.0
1572.503425	4917.799805
1573.014839	4943.399902
1573.526199	4929.200195
1574.037505	4918.600098
1574.548756	4884.399902
1575.059953	4909.200195
1575.571096	4895.600098
1576.082185	4907.799805
1576.59322	4894.399902
1577.1042	4912.600098
1577.615126	4847.200195
1578.125998	4903.200195
1578.636816	4854.200195
1579.14758	4866.200195
1579.658289	4841.600098
1580.168944	4866.0
1580.679545	4876.200195
1581.190092	4837.600098
1581.700585	4859.799805
1582.211023	4804.200195
1582.721407	4874.799805
1583.231737	4827.799805
1583.742013	4832.799805
1584.252235	4824.0
1584.762403	4863.600098
1585.272516	4862.600098
1585.782575	4863.600098
1586.292581	4869.0
1586.802532	4828.0
1587.312428	4858.600098
1587.822271	4829.799805
1588.33206	4860.399902
1588.841794	4800.200195
1589.351474	4817.799805
1589.8611	4814.200195
1590.370672	4818.0
1590.88019	4838.200195
1591.389654	4755.200195
1591.899064	4826.399902
