 1.042452273E+03	 3.986180078E+04
 1.043018714E+03	 4.013700000E+04
 1.043585098E+03	 3.983060156E+04
 1.044151424E+03	 4.004060156E+04
 1.044717692E+03	 3.993719922E+04
 1.045283903E+03	 3.999980078E+04
 1.045850056E+03	 3.992639844E+04
 1.046416151E+03	 3.999160156E+04
 1.046982188E+03	 3.967960156E+04
 1.047548167E+03	 3.991100000E+04
 1.048114089E+03	 3.975019922E+04
 1.048679953E+03	 4.010319922E+04
 1.049245760E+03	 3.972880078E+04
 1.049811509E+03	 4.002239844E+04
 1.050377200E+03	 3.975419922E+04
 1.050942833E+03	 3.985639844E+04
 1.051508408E+03	 3.968900000E+04
 1.052073926E+03	 3.975839844E+04
 1.052639387E+03	 3.956700000E+04
 1.053204789E+03	 3.979860156E+04
 1.053770134E+03	 3.971360156E+04
 1.054335421E+03	 3.976700000E+04
 1.054900651E+03	 3.966039844E+04
 1.055465823E+03	 3.965260156E+04
 1.056030937E+03	 3.946719922E+04
 1.056595993E+03	 3.974939844E+04
 1.057160992E+03	 3.948739844E+04
 1.057725934E+03	 3.965180078E+04
 1.058290817E+03	 3.937460156E+04
 1.058855643E+03	 3.963919922E+04
 1.059420411E+03	 3.950439844E+04
 1.059985122E+03	 3.954319922E+04
 1.060549775E+03	 3.933080078E+04
 1.061114371E+03	 3.943500000E+04
 1.061678908E+03	 3.945900000E+04
 1.062243389E+03	 3.951019922E+04
 1.062807811E+03	 3.936160156E+04
 1.063372176E+03	 3.940619922E+04
 1.063936483E+03	 3.926700000E+04
 1.064500733E+03	 3.934360156E+04
 1.065064925E+03	 3.915000000E+04
 1.065629060E+03	 3.935280078E+04
 1.066193137E+03	 3.930719922E+04
 1.066757156E+03	 3.938339844E+04
 1.067321118E+03	 3.914839844E+04
 1.067885022E+03	 3.914439844E+04
 1.068448869E+03	 3.911580078E+04
 1.069012658E+03	 3.914380078E+04
 1.069576390E+03	 3.907039844E+04
 1.070140063E+03	 3.906139844E+04
 1.070703680E+03	 3.904739844E+04
 1.071267239E+03	 3.906639844E+04
 1.071830740E+03	 3.896039844E+04
 1.072394184E+03	 3.895139844E+04
 1.072957570E+03	 3.880080078E+04
 1.073520899E+03	 3.896380078E+04
 1.074084170E+03	 3.898480078E+04
 1.074647383E+03	 3.873080078E+04
 1.075210540E+03	 3.888600000E+04
 1.075773638E+03	 3.867319922E+04
 1.076336679E+03	 3.873439844E+04
 1.076899663E+03	 3.864219922E+04
 1.077462589E+03	 3.863419922E+04
 1.078025457E+03	 3.859700000E+04
 1.078588268E+03	 3.872180078E+04
 1.079151022E+03	 3.860780078E+04
 1.079713718E+03	 3.852619922E+04
 1.080276356E+03	 3.859080078E+04
 1.080838937E+03	 3.853319922E+04
 1.081401461E+03	 3.847460156E+04
 1.081963927E+03	 3.845760156E+04
 1.082526336E+03	 3.837660156E+04
 1.083088687E+03	 3.828580078E+04
 1.083650981E+03	 3.821719922E+04
 1.084213217E+03	 3.830960156E+04
 1.084775396E+03	 3.818000000E+04
 1.085337517E+03	 3.823360156E+04
 1.085899581E+03	 3.825700000E+04
 1.086461587E+03	 3.813960156E+04
 1.087023536E+03	 3.814900000E+04
 1.087585428E+03	 3.811860156E+04
 1.088147262E+03	 3.814539844E+04
 1.088709039E+03	 3.797539844E+04
 1.089270758E+03	 3.803919922E+04
 1.089832420E+03	 3.797800000E+04
 1.090394024E+03	 3.790919922E+04
 1.090955571E+03	 3.801780078E+04
 1.091517061E+03	 3.786700000E+04
 1.092078493E+03	 3.770660156E+04
 1.092639868E+03	 3.772180078E+04
 1.093201185E+03	 3.775439844E+04
 1.093762445E+03	 3.771139844E+04
 1.094323648E+03	 3.761780078E+04
 1.094884793E+03	 3.770000000E+04
 1.095445881E+03	 3.760880078E+04
 1.096006911E+03	 3.755519922E+04
 1.096567884E+03	 3.739239844E+04
 1.097128800E+03	 3.730839844E+04
 1.097689659E+03	 3.751680078E+04
 1.098250460E+03	 3.742660156E+04
 1.098811203E+03	 3.739680078E+04
 1.099371890E+03	 3.741000000E+04
 1.099932518E+03	 3.735600000E+04
 1.100493090E+03	 3.734400000E+04
 1.101053604E+03	 3.709900000E+04
 1.101614061E+03	 3.713300000E+04
 1.102174461E+03	 3.695100000E+04
 1.102734803E+03	 3.708419922E+04
 1.103295088E+03	 3.702339844E+04
 1.103855316E+03	 3.701600000E+04
 1.104415486E+03	 3.688560156E+04
 1.104975599E+03	 3.690700000E+04
 1.105535655E+03	 3.676080078E+04
 1.106095653E+03	 3.675480078E+04
 1.106655594E+03	 3.662600000E+04
 1.107215478E+03	 3.675660156E+04
 1.107775305E+03	 3.660480078E+04
 1.108335074E+03	 3.665400000E+04
 1.108894786E+03	 3.654519922E+04
 1.109454440E+03	 3.646239844E+04
 1.110014038E+03	 3.651339844E+04
 1.110573578E+03	 3.666760156E+04
 1.111133061E+03	 3.649419922E+04
 1.111692486E+03	 3.647339844E+04
 1.112251854E+03	 3.624360156E+04
 1.112811165E+03	 3.642860156E+04
 1.113370419E+03	 3.626360156E+04
 1.113929616E+03	 3.645700000E+04
 1.114488755E+03	 3.617619922E+04
 1.115047837E+03	 3.629080078E+04
 1.115606862E+03	 3.614360156E+04
 1.116165830E+03	 3.632619922E+04
 1.116724740E+03	 3.612239844E+04
 1.117283593E+03	 3.631039844E+04
 1.117842389E+03	 3.606680078E+04
 1.118401128E+03	 3.616400000E+04
 1.118959809E+03	 3.594639844E+04
 1.119518433E+03	 3.616900000E+04
 1.120077000E+03	 3.601080078E+04
 1.120635510E+03	 3.609600000E+04
 1.121193963E+03	 3.595880078E+04
 1.121752358E+03	 3.613560156E+04
 1.122310697E+03	 3.590239844E+04
 1.122868978E+03	 3.597819922E+04
 1.123427202E+03	 3.580739844E+04
 1.123985368E+03	 3.592839844E+04
 1.124543478E+03	 3.573039844E+04
 1.125101530E+03	 3.592619922E+04
 1.125659526E+03	 3.567500000E+04
 1.126217464E+03	 3.589539844E+04
 1.126775345E+03	 3.569219922E+04
 1.127333168E+03	 3.592860156E+04
 1.127890935E+03	 3.558500000E+04
 1.128448644E+03	 3.590639844E+04
 1.129006297E+03	 3.556880078E+04
 1.129563892E+03	 3.568339844E+04
 1.130121430E+03	 3.550700000E+04
 1.130678911E+03	 3.568760156E+04
 1.131236335E+03	 3.552680078E+04
 1.131793701E+03	 3.569000000E+04
 1.132351011E+03	 3.550719922E+04
 1.132908263E+03	 3.563500000E+04
 1.133465458E+03	 3.539480078E+04
 1.134022597E+03	 3.563839844E+04
 1.134579678E+03	 3.545200000E+04
 1.135136702E+03	 3.552639844E+04
 1.135693669E+03	 3.545539844E+04
 1.136250578E+03	 3.562439844E+04
 1.136807431E+03	 3.547180078E+04
 1.137364227E+03	 3.568039844E+04
 1.137920965E+03	 3.543080078E+04
 1.138477647E+03	 3.551639844E+04
 1.139034271E+03	 3.539100000E+04
 1.139590839E+03	 3.548900000E+04
 1.140147349E+03	 3.528339844E+04
 1.140703802E+03	 3.542019922E+04
 1.141260198E+03	 3.535760156E+04
 1.141816537E+03	 3.545639844E+04
 1.142372820E+03	 3.533760156E+04
 1.142929045E+03	 3.545680078E+04
 1.143485213E+03	 3.524800000E+04
 1.144041323E+03	 3.541080078E+04
 1.144597377E+03	 3.524419922E+04
 1.145153374E+03	 3.551960156E+04
 1.145709314E+03	 3.523319922E+04
 1.146265197E+03	 3.530400000E+04
 1.146821023E+03	 3.533460156E+04
 1.147376792E+03	 3.536100000E+04
 1.147932503E+03	 3.523080078E+04
 1.148488158E+03	 3.525739844E+04
 1.149043756E+03	 3.530480078E+04
 1.149599297E+03	 3.531760156E+04
 1.150154781E+03	 3.534800000E+04
 1.150710207E+03	 3.542239844E+04
 1.151265577E+03	 3.527519922E+04
 1.151820890E+03	 3.538000000E+04
 1.152376146E+03	 3.535819922E+04
 1.152931345E+03	 3.517600000E+04
 1.153486487E+03	 3.511600000E+04
 1.154041572E+03	 3.528800000E+04
 1.154596600E+03	 3.516839844E+04
 1.155151571E+03	 3.526880078E+04
 1.155706485E+03	 3.529760156E+04
 1.156261342E+03	 3.527360156E+04
 1.156816142E+03	 3.523239844E+04
 1.157370885E+03	 3.526180078E+04
 1.157925572E+03	 3.513300000E+04
 1.158480201E+03	 3.522400000E+04
 1.159034774E+03	 3.512200000E+04
 1.159589289E+03	 3.520900000E+04
 1.160143748E+03	 3.509519922E+04
 1.160698149E+03	 3.504900000E+04
 1.161252494E+03	 3.506860156E+04
 1.161806782E+03	 3.519200000E+04
 1.162361013E+03	 3.512180078E+04
 1.162915187E+03	 3.507160156E+04
 1.163469304E+03	 3.503739844E+04
 1.164023364E+03	 3.496200000E+04
 1.164577368E+03	 3.499760156E+04
 1.165131314E+03	 3.495400000E+04
 1.165685204E+03	 3.497880078E+04
 1.166239036E+03	 3.483539844E+04
 1.166792812E+03	 3.494900000E+04
 1.167346531E+03	 3.480800000E+04
 1.167900193E+03	 3.488839844E+04
 1.168453798E+03	 3.478800000E+04
 1.169007347E+03	 3.494219922E+04
 1.169560838E+03	 3.470700000E+04
 1.170114273E+03	 3.495760156E+04
 1.170667650E+03	 3.472160156E+04
 1.171220971E+03	 3.488919922E+04
 1.171774235E+03	 3.472239844E+04
 1.172327443E+03	 3.469060156E+04
 1.172880593E+03	 3.462519922E+04
 1.173433687E+03	 3.481219922E+04
 1.173986723E+03	 3.463239844E+04
 1.174539703E+03	 3.471980078E+04
 1.175092626E+03	 3.468680078E+04
 1.175645493E+03	 3.472919922E+04
 1.176198302E+03	 3.453400000E+04
 1.176751055E+03	 3.461080078E+04
 1.177303751E+03	 3.464119922E+04
 1.177856390E+03	 3.470939844E+04
 1.178408972E+03	 3.459419922E+04
 1.178961498E+03	 3.472560156E+04
 1.179513966E+03	 3.444160156E+04
 1.180066378E+03	 3.443600000E+04
 1.180618733E+03	 3.440760156E+04
 1.181171032E+03	 3.441400000E+04
 1.181723273E+03	 3.425019922E+04
 1.182275458E+03	 3.440260156E+04
 1.182827586E+03	 3.432780078E+04
 1.183379657E+03	 3.432439844E+04
 1.183931672E+03	 3.434539844E+04
 1.184483630E+03	 3.430700000E+04
 1.185035531E+03	 3.439819922E+04
 1.185587375E+03	 3.422160156E+04
 1.186139162E+03	 3.434160156E+04
 1.186690893E+03	 3.416380078E+04
 1.187242567E+03	 3.417900000E+04
 1.187794184E+03	 3.423919922E+04
 1.188345745E+03	 3.429039844E+04
 1.188897249E+03	 3.416700000E+04
 1.189448696E+03	 3.416619922E+04
 1.190000086E+03	 3.404719922E+04
 1.190551420E+03	 3.393239844E+04
 1.191102697E+03	 3.399800000E+04
 1.191653918E+03	 3.418200000E+04
 1.192205081E+03	 3.394419922E+04
 1.192756188E+03	 3.403260156E+04
 1.193307238E+03	 3.391480078E+04
 1.193858232E+03	 3.401460156E+04
 1.194409169E+03	 3.385780078E+04
 1.194960049E+03	 3.390319922E+04
 1.195510872E+03	 3.381800000E+04
 1.196061639E+03	 3.387319922E+04
 1.196612349E+03	 3.391119922E+04
 1.197163003E+03	 3.369660156E+04
 1.197713599E+03	 3.380219922E+04
 1.198264139E+03	 3.383200000E+04
 1.198814623E+03	 3.367560156E+04
 1.199365050E+03	 3.373939844E+04
 1.199915420E+03	 3.361180078E+04
 1.200465734E+03	 3.368580078E+04
 1.201015990E+03	 3.361139844E+04
 1.201566191E+03	 3.351919922E+04
 1.202116334E+03	 3.355560156E+04
 1.202666421E+03	 3.344460156E+04
 1.203216452E+03	 3.362700000E+04
 1.203766425E+03	 3.349900000E+04
 1.204316343E+03	 3.348119922E+04
 1.204866203E+03	 3.331180078E+04
 1.205416007E+03	 3.338160156E+04
 1.205965754E+03	 3.341739844E+04
 1.206515445E+03	 3.334019922E+04
 1.207065079E+03	 3.333619922E+04
 1.207614657E+03	 3.328360156E+04
 1.208164177E+03	 3.321619922E+04
 1.208713642E+03	 3.328300000E+04
 1.209263050E+03	 3.306400000E+04
 1.209812401E+03	 3.323419922E+04
 1.210361695E+03	 3.310460156E+04
 1.210910933E+03	 3.310880078E+04
 1.211460115E+03	 3.305560156E+04
 1.212009240E+03	 3.305439844E+04
 1.212558308E+03	 3.300319922E+04
 1.213107320E+03	 3.312460156E+04
 1.213656275E+03	 3.292400000E+04
 1.214205174E+03	 3.309200000E+04
 1.214754016E+03	 3.286339844E+04
 1.215302801E+03	 3.293739844E+04
 1.215851530E+03	 3.306180078E+04
 1.216400203E+03	 3.288719922E+04
 1.216948819E+03	 3.285680078E+04
 1.217497378E+03	 3.288019922E+04
 1.218045881E+03	 3.290619922E+04
 1.218594327E+03	 3.273980078E+04
 1.219142717E+03	 3.286660156E+04
 1.219691051E+03	 3.258180078E+04
 1.220239327E+03	 3.276640039E+04
 1.220787548E+03	 3.274800000E+04
 1.221335712E+03	 3.287619922E+04
 1.221883819E+03	 3.258700000E+04
 1.222431870E+03	 3.274559961E+04
 1.222979864E+03	 3.252119922E+04
 1.223527802E+03	 3.261219922E+04
 1.224075683E+03	 3.254300000E+04
 1.224623508E+03	 3.259740039E+04
 1.225171277E+03	 3.235759961E+04
 1.225718989E+03	 3.254300000E+04
 1.226266644E+03	 3.241600000E+04
 1.226814243E+03	 3.252059961E+04
 1.227361786E+03	 3.235159961E+04
 1.227909272E+03	 3.253680078E+04
 1.228456702E+03	 3.234059961E+04
 1.229004075E+03	 3.242059961E+04
 1.229551392E+03	 3.239219922E+04
 1.230098652E+03	 3.241659961E+04
 1.230645856E+03	 3.229380078E+04
 1.231193003E+03	 3.234459961E+04
 1.231740094E+03	 3.231680078E+04
 1.232287129E+03	 3.218919922E+04
 1.232834107E+03	 3.218519922E+04
 1.233381029E+03	 3.216600000E+04
 1.233927894E+03	 3.224600000E+04
 1.234474703E+03	 3.222140039E+04
 1.235021455E+03	 3.216259961E+04
 1.235568151E+03	 3.211380078E+04
 1.236114791E+03	 3.219540039E+04
 1.236661374E+03	 3.202419922E+04
 1.237207901E+03	 3.225080078E+04
 1.237754372E+03	 3.197100000E+04
 1.238300786E+03	 3.209140039E+04
 1.238847144E+03	 3.204319922E+04
 1.239393445E+03	 3.206040039E+04
 1.239939690E+03	 3.187840039E+04
 1.240485879E+03	 3.209340039E+04
 1.241032011E+03	 3.185640039E+04
 1.241578087E+03	 3.193319922E+04
 1.242124106E+03	 3.175680078E+04
 1.242670070E+03	 3.197800000E+04
 1.243215976E+03	 3.184800000E+04
 1.243761827E+03	 3.184819922E+04
 1.244307621E+03	 3.180700000E+04
 1.244853359E+03	 3.183800000E+04
 1.245399040E+03	 3.173040039E+04
 1.245944665E+03	 3.180040039E+04
 1.246490234E+03	 3.177819922E+04
 1.247035746E+03	 3.170540039E+04
 1.247581203E+03	 3.166880078E+04
 1.248126602E+03	 3.153959961E+04
 1.248671946E+03	 3.175540039E+04
 1.249217233E+03	 3.165880078E+04
 1.249762464E+03	 3.173459961E+04
 1.250307638E+03	 3.147659961E+04
 1.250852757E+03	 3.166680078E+04
 1.251397819E+03	 3.165740039E+04
 1.251942824E+03	 3.162500000E+04
 1.252487774E+03	 3.156640039E+04
 1.253032667E+03	 3.162100000E+04
 1.253577503E+03	 3.140740039E+04
 1.254122284E+03	 3.156319922E+04
 1.254667008E+03	 3.138180078E+04
 1.255211676E+03	 3.146740039E+04
 1.255756288E+03	 3.133419922E+04
 1.256300843E+03	 3.148380078E+04
 1.256845342E+03	 3.142259961E+04
 1.257389785E+03	 3.130859961E+04
 1.257934172E+03	 3.125759961E+04
 1.258478502E+03	 3.145040039E+04
 1.259022776E+03	 3.127780078E+04
 1.259566994E+03	 3.135380078E+04
 1.260111156E+03	 3.126680078E+04
 1.260655261E+03	 3.117980078E+04
 1.261199311E+03	 3.118200000E+04
 1.261743304E+03	 3.118380078E+04
 1.262287240E+03	 3.114119922E+04
 1.262831121E+03	 3.109280078E+04
 1.263374945E+03	 3.119059961E+04
 1.263918713E+03	 3.100800000E+04
 1.264462425E+03	 3.101659961E+04
 1.265006081E+03	 3.106519922E+04
 1.265549680E+03	 3.104440039E+04
 1.266093223E+03	 3.103200000E+04
 1.266636711E+03	 3.093000000E+04
 1.267180141E+03	 3.091440039E+04
 1.267723516E+03	 3.105619922E+04
 1.268266835E+03	 3.096159961E+04
 1.268810097E+03	 3.113140039E+04
 1.269353303E+03	 3.078740039E+04
 1.269896453E+03	 3.091819922E+04
 1.270439547E+03	 3.079080078E+04
 1.270982584E+03	 3.084200000E+04
 1.271525566E+03	 3.082980078E+04
 1.272068491E+03	 3.079619922E+04
 1.272611360E+03	 3.082140039E+04
 1.273154173E+03	 3.086919922E+04
 1.273696930E+03	 3.078800000E+04
 1.274239631E+03	 3.082559961E+04
 1.274782275E+03	 3.062800000E+04
 1.275324864E+03	 3.072759961E+04
 1.275867396E+03	 3.082019922E+04
 1.276409872E+03	 3.067540039E+04
 1.276952292E+03	 3.065819922E+04
 1.277494656E+03	 3.065359961E+04
 1.278036964E+03	 3.061880078E+04
 1.278579215E+03	 3.054540039E+04
 1.279121411E+03	 3.052259961E+04
 1.279663550E+03	 3.059680078E+04
 1.280205634E+03	 3.055680078E+04
 1.280747661E+03	 3.049040039E+04
 1.281289632E+03	 3.045119922E+04
 1.281831547E+03	 3.044800000E+04
 1.282373406E+03	 3.043780078E+04
 1.282915209E+03	 3.042340039E+04
 1.283456955E+03	 3.040880078E+04
 1.283998646E+03	 3.027080078E+04
 1.284540281E+03	 3.041419922E+04
 1.285081859E+03	 3.036059961E+04
 1.285623381E+03	 3.044340039E+04
 1.286164848E+03	 3.035819922E+04
 1.286706258E+03	 3.028859961E+04
 1.287247612E+03	 3.019159961E+04
 1.287788911E+03	 3.024600000E+04
 1.288330153E+03	 3.010780078E+04
 1.288871339E+03	 3.020759961E+04
 1.289412469E+03	 3.018080078E+04
 1.289953543E+03	 3.015780078E+04
 1.290494561E+03	 3.005619922E+04
 1.291035523E+03	 3.016600000E+04
 1.291576428E+03	 3.005659961E+04
 1.292117278E+03	 3.017000000E+04
 1.292658072E+03	 2.992740039E+04
 1.293198810E+03	 3.005419922E+04
 1.293739492E+03	 2.988880078E+04
 1.294280118E+03	 2.988500000E+04
 1.294820687E+03	 2.992480078E+04
 1.295361201E+03	 2.998800000E+04
 1.295901659E+03	 2.990800000E+04
 1.296442061E+03	 2.986100000E+04
 1.296982406E+03	 2.985719922E+04
 1.297522696E+03	 2.987940039E+04
 1.298062930E+03	 2.990319922E+04
 1.298603108E+03	 2.972519922E+04
 1.299143229E+03	 2.987880078E+04
 1.299683295E+03	 2.966780078E+04
 1.300223305E+03	 2.973159961E+04
 1.300763259E+03	 2.960900000E+04
 1.301303157E+03	 2.969100000E+04
 1.301842999E+03	 2.960100000E+04
 1.302382785E+03	 2.969600000E+04
 1.302922515E+03	 2.947619922E+04
 1.303462189E+03	 2.966759961E+04
 1.304001807E+03	 2.944200000E+04
 1.304541369E+03	 2.961259961E+04
 1.305080875E+03	 2.956440039E+04
 1.305620326E+03	 2.954680078E+04
 1.306159720E+03	 2.944340039E+04
 1.306699058E+03	 2.943740039E+04
 1.307238341E+03	 2.942980078E+04
 1.307777567E+03	 2.937680078E+04
 1.308316738E+03	 2.941119922E+04
 1.308855853E+03	 2.942500000E+04
 1.309394912E+03	 2.943859961E+04
 1.309933915E+03	 2.934859961E+04
 1.310472862E+03	 2.927019922E+04
 1.311011753E+03	 2.927719922E+04
 1.311550588E+03	 2.928159961E+04
 1.312089367E+03	 2.918559961E+04
 1.312628090E+03	 2.935580078E+04
 1.313166758E+03	 2.917419922E+04
 1.313705370E+03	 2.933700000E+04
 1.314243925E+03	 2.917019922E+04
 1.314782425E+03	 2.931819922E+04
 1.315320869E+03	 2.902459961E+04
 1.315859257E+03	 2.921940039E+04
 1.316397589E+03	 2.903659961E+04
 1.316935866E+03	 2.912859961E+04
 1.317474086E+03	 2.897380078E+04
 1.318012251E+03	 2.909340039E+04
 1.318550360E+03	 2.901719922E+04
 1.319088413E+03	 2.894800000E+04
 1.319626410E+03	 2.890559961E+04
 1.320164351E+03	 2.897319922E+04
 1.320702236E+03	 2.894000000E+04
 1.321240066E+03	 2.890080078E+04
 1.321777839E+03	 2.901700000E+04
 1.322315557E+03	 2.879919922E+04
 1.322853219E+03	 2.884980078E+04
 1.323390826E+03	 2.888280078E+04
 1.323928376E+03	 2.897300000E+04
 1.324465871E+03	 2.867059961E+04
 1.325003309E+03	 2.878400000E+04
 1.325540692E+03	 2.863940039E+04
 1.326078020E+03	 2.880059961E+04
 1.326615291E+03	 2.868419922E+04
 1.327152506E+03	 2.873740039E+04
 1.327689666E+03	 2.861159961E+04
 1.328226770E+03	 2.876319922E+04
 1.328763818E+03	 2.857780078E+04
 1.329300811E+03	 2.863340039E+04
 1.329837747E+03	 2.860280078E+04
 1.330374628E+03	 2.867040039E+04
 1.330911453E+03	 2.847080078E+04
 1.331448222E+03	 2.860400000E+04
 1.331984936E+03	 2.852380078E+04
 1.332521594E+03	 2.841359961E+04
 1.333058196E+03	 2.849080078E+04
 1.333594742E+03	 2.842419922E+04
 1.334131232E+03	 2.853519922E+04
 1.334667667E+03	 2.834059961E+04
 1.335204046E+03	 2.852940039E+04
 1.335740369E+03	 2.840800000E+04
 1.336276637E+03	 2.846359961E+04
 1.336812848E+03	 2.826680078E+04
 1.337349004E+03	 2.848200000E+04
 1.337885105E+03	 2.844259961E+04
 1.338421149E+03	 2.843300000E+04
 1.338957138E+03	 2.825300000E+04
 1.339493071E+03	 2.837559961E+04
 1.340028949E+03	 2.818840039E+04
 1.340564770E+03	 2.820440039E+04
 1.341100536E+03	 2.818759961E+04
 1.341636246E+03	 2.815440039E+04
 1.342171901E+03	 2.808900000E+04
 1.342707500E+03	 2.807600000E+04
 1.343243043E+03	 2.812519922E+04
 1.343778530E+03	 2.803980078E+04
 1.344313962E+03	 2.821700000E+04
 1.344849338E+03	 2.804759961E+04
 1.345384659E+03	 2.810780078E+04
 1.345919923E+03	 2.794600000E+04
 1.346455133E+03	 2.805100000E+04
 1.346990286E+03	 2.792100000E+04
 1.347525384E+03	 2.793919922E+04
 1.348060426E+03	 2.790880078E+04
 1.348595412E+03	 2.791600000E+04
 1.349130343E+03	 2.785900000E+04
 1.349665218E+03	 2.799780078E+04
 1.350200037E+03	 2.788940039E+04
 1.350734801E+03	 2.806059961E+04
 1.351269509E+03	 2.784259961E+04
 1.351804162E+03	 2.791980078E+04
 1.352338758E+03	 2.780240039E+04
 1.352873300E+03	 2.780500000E+04
 1.353407785E+03	 2.785040039E+04
 1.353942215E+03	 2.765480078E+04
 1.354476589E+03	 2.781019922E+04
 1.355010908E+03	 2.759080078E+04
 1.355545171E+03	 2.775100000E+04
 1.356079379E+03	 2.756359961E+04
 1.356613530E+03	 2.780140039E+04
 1.357147627E+03	 2.752519922E+04
 1.357681667E+03	 2.767440039E+04
 1.358215652E+03	 2.750000000E+04
 1.358749582E+03	 2.763340039E+04
 1.359283456E+03	 2.746800000E+04
 1.359817274E+03	 2.762700000E+04
 1.360351037E+03	 2.741319922E+04
 1.360884744E+03	 2.754780078E+04
 1.361418395E+03	 2.739880078E+04
 1.361951991E+03	 2.746959961E+04
 1.362485531E+03	 2.745400000E+04
 1.363019016E+03	 2.753619922E+04
 1.363552445E+03	 2.745700000E+04
 1.364085819E+03	 2.739100000E+04
 1.364619137E+03	 2.744019922E+04
 1.365152400E+03	 2.724659961E+04
 1.365685607E+03	 2.740600000E+04
 1.366218758E+03	 2.719480078E+04
 1.366751854E+03	 2.750200000E+04
 1.367284894E+03	 2.722719922E+04
 1.367817879E+03	 2.728880078E+04
 1.368350808E+03	 2.703700000E+04
 1.368883682E+03	 2.733659961E+04
 1.369416500E+03	 2.718819922E+04
 1.369949263E+03	 2.732119922E+04
 1.370481970E+03	 2.717380078E+04
 1.371014622E+03	 2.712059961E+04
 1.371547218E+03	 2.714000000E+04
 1.372079758E+03	 2.706600000E+04
 1.372612244E+03	 2.706500000E+04
 1.373144673E+03	 2.710000000E+04
 1.373677047E+03	 2.706759961E+04
 1.374209366E+03	 2.696980078E+04
 1.374741629E+03	 2.701600000E+04
 1.375273836E+03	 2.686600000E+04
 1.375805989E+03	 2.712219922E+04
 1.376338085E+03	 2.688340039E+04
 1.376870126E+03	 2.703700000E+04
 1.377402112E+03	 2.675259961E+04
 1.377934042E+03	 2.705359961E+04
 1.378465917E+03	 2.681159961E+04
 1.378997736E+03	 2.706400000E+04
 1.379529500E+03	 2.680640039E+04
 1.380061208E+03	 2.695200000E+04
 1.380592861E+03	 2.672659961E+04
 1.381124459E+03	 2.690840039E+04
 1.381656000E+03	 2.674740039E+04
 1.382187487E+03	 2.677300000E+04
 1.382718918E+03	 2.678619922E+04
 1.383250294E+03	 2.680480078E+04
 1.383781614E+03	 2.686580078E+04
 1.384312879E+03	 2.659859961E+04
 1.384844088E+03	 2.678880078E+04
 1.385375242E+03	 2.655719922E+04
 1.385906340E+03	 2.677159961E+04
 1.386437383E+03	 2.655000000E+04
 1.386968371E+03	 2.683440039E+04
 1.387499303E+03	 2.666859961E+04
 1.388030180E+03	 2.678140039E+04
 1.388561001E+03	 2.667780078E+04
 1.389091767E+03	 2.680959961E+04
 1.389622478E+03	 2.650359961E+04
 1.390153133E+03	 2.652359961E+04
 1.390683733E+03	 2.654540039E+04
 1.391214277E+03	 2.650080078E+04
 1.391744766E+03	 2.658259961E+04
 1.392275200E+03	 2.648419922E+04
 1.392805578E+03	 2.650419922E+04
 1.393335901E+03	 2.634500000E+04
 1.393866168E+03	 2.651759961E+04
 1.394396381E+03	 2.633740039E+04
 1.394926537E+03	 2.652100000E+04
 1.395456639E+03	 2.624259961E+04
 1.395986685E+03	 2.649919922E+04
 1.396516675E+03	 2.626580078E+04
 1.397046611E+03	 2.648059961E+04
 1.397576491E+03	 2.627419922E+04
 1.398106315E+03	 2.634219922E+04
 1.398636084E+03	 2.632040039E+04
 1.399165798E+03	 2.639380078E+04
 1.399695457E+03	 2.635119922E+04
 1.400225060E+03	 2.622240039E+04
 1.400754608E+03	 2.632200000E+04
 1.401284101E+03	 2.611740039E+04
 1.401813538E+03	 2.633480078E+04
 1.402342920E+03	 2.612219922E+04
 1.402872247E+03	 2.630359961E+04
 1.403401518E+03	 2.618859961E+04
 1.403930734E+03	 2.627380078E+04
 1.404459895E+03	 2.611219922E+04
 1.404989000E+03	 2.629500000E+04
 1.405518050E+03	 2.616400000E+04
 1.406047045E+03	 2.619740039E+04
 1.406575984E+03	 2.619700000E+04
 1.407104869E+03	 2.614719922E+04
 1.407633697E+03	 2.607800000E+04
 1.408162471E+03	 2.611180078E+04
 1.408691189E+03	 2.619619922E+04
 1.409219852E+03	 2.598919922E+04
 1.409748460E+03	 2.614259961E+04
 1.410277013E+03	 2.599459961E+04
 1.410805510E+03	 2.609040039E+04
 1.411333952E+03	 2.586280078E+04
 1.411862339E+03	 2.604240039E+04
 1.412390670E+03	 2.585319922E+04
 1.412918946E+03	 2.609759961E+04
 1.413447167E+03	 2.592300000E+04
 1.413975333E+03	 2.590619922E+04
 1.414503444E+03	 2.599919922E+04
 1.415031499E+03	 2.590540039E+04
 1.415559499E+03	 2.589240039E+04
 1.416087444E+03	 2.582300000E+04
 1.416615333E+03	 2.585440039E+04
 1.417143167E+03	 2.582200000E+04
 1.417670947E+03	 2.587300000E+04
 1.418198670E+03	 2.580000000E+04
 1.418726339E+03	 2.581900000E+04
 1.419253952E+03	 2.563380078E+04
 1.419781511E+03	 2.587559961E+04
 1.420309014E+03	 2.574840039E+04
 1.420836461E+03	 2.579040039E+04
 1.421363854E+03	 2.571440039E+04
 1.421891191E+03	 2.580019922E+04
 1.422418474E+03	 2.562319922E+04
 1.422945701E+03	 2.569319922E+04
 1.423472872E+03	 2.560580078E+04
 1.423999989E+03	 2.560559961E+04
 1.424527050E+03	 2.575780078E+04
 1.425054057E+03	 2.564300000E+04
 1.425581008E+03	 2.572759961E+04
 1.426107904E+03	 2.567440039E+04
 1.426634745E+03	 2.565059961E+04
 1.427161530E+03	 2.555080078E+04
 1.427688261E+03	 2.558959961E+04
 1.428214936E+03	 2.555819922E+04
 1.428741556E+03	 2.556200000E+04
 1.429268121E+03	 2.554340039E+04
 1.429794631E+03	 2.553240039E+04
 1.430321085E+03	 2.544419922E+04
 1.430847485E+03	 2.558040039E+04
 1.431373829E+03	 2.548519922E+04
 1.431900118E+03	 2.538800000E+04
 1.432426353E+03	 2.542219922E+04
 1.432952532E+03	 2.543800000E+04
 1.433478655E+03	 2.537019922E+04
 1.434004724E+03	 2.530159961E+04
 1.434530738E+03	 2.541800000E+04
 1.435056696E+03	 2.534000000E+04
 1.435582600E+03	 2.532880078E+04
 1.436108448E+03	 2.523919922E+04
 1.436634241E+03	 2.524900000E+04
 1.437159979E+03	 2.513100000E+04
 1.437685662E+03	 2.526600000E+04
 1.438211290E+03	 2.518840039E+04
 1.438736863E+03	 2.527680078E+04
 1.439262381E+03	 2.517859961E+04
 1.439787843E+03	 2.522119922E+04
 1.440313251E+03	 2.518100000E+04
 1.440838603E+03	 2.516859961E+04
 1.441363900E+03	 2.511259961E+04
 1.441889143E+03	 2.515340039E+04
 1.442414330E+03	 2.510580078E+04
 1.442939462E+03	 2.509380078E+04
 1.443464539E+03	 2.504800000E+04
 1.443989561E+03	 2.501240039E+04
 1.444514528E+03	 2.500059961E+04
 1.445039440E+03	 2.489319922E+04
 1.445564297E+03	 2.494140039E+04
 1.446089099E+03	 2.494300000E+04
 1.446613846E+03	 2.495540039E+04
 1.447138537E+03	 2.499340039E+04
 1.447663174E+03	 2.494059961E+04
 1.448187756E+03	 2.494619922E+04
 1.448712282E+03	 2.494619922E+04
 1.449236754E+03	 2.485919922E+04
 1.449761171E+03	 2.482580078E+04
 1.450285532E+03	 2.482919922E+04
 1.450809839E+03	 2.481359961E+04
 1.451334090E+03	 2.482380078E+04
 1.451858287E+03	 2.475380078E+04
 1.452382428E+03	 2.469340039E+04
 1.452906515E+03	 2.471319922E+04
 1.453430546E+03	 2.481019922E+04
 1.453954523E+03	 2.476559961E+04
 1.454478444E+03	 2.476859961E+04
 1.455002311E+03	 2.463480078E+04
 1.455526123E+03	 2.473600000E+04
 1.456049879E+03	 2.460459961E+04
 1.456573581E+03	 2.473559961E+04
 1.457097227E+03	 2.463140039E+04
 1.457620819E+03	 2.461040039E+04
 1.458144356E+03	 2.460400000E+04
 1.458667837E+03	 2.459559961E+04
 1.459191264E+03	 2.454619922E+04
 1.459714636E+03	 2.451800000E+04
 1.460237952E+03	 2.449640039E+04
 1.460761214E+03	 2.450600000E+04
 1.461284421E+03	 2.454219922E+04
 1.461807573E+03	 2.444259961E+04
 1.462330670E+03	 2.449919922E+04
 1.462853712E+03	 2.440540039E+04
 1.463376699E+03	 2.443740039E+04
 1.463899632E+03	 2.436619922E+04
 1.464422509E+03	 2.441740039E+04
 1.464945331E+03	 2.442159961E+04
 1.465468099E+03	 2.430819922E+04
 1.465990811E+03	 2.433400000E+04
 1.466513469E+03	 2.430900000E+04
 1.467036071E+03	 2.435640039E+04
 1.467558619E+03	 2.429159961E+04
 1.468081112E+03	 2.423959961E+04
 1.468603550E+03	 2.418259961E+04
 1.469125933E+03	 2.430380078E+04
 1.469648261E+03	 2.430119922E+04
 1.470170534E+03	 2.427319922E+04
 1.470692752E+03	 2.408059961E+04
 1.471214916E+03	 2.411000000E+04
 1.471737024E+03	 2.411040039E+04
 1.472259078E+03	 2.413100000E+04
 1.472781077E+03	 2.399740039E+04
 1.473303021E+03	 2.410680078E+04
 1.473824910E+03	 2.409059961E+04
 1.474346744E+03	 2.403059961E+04
 1.474868523E+03	 2.410100000E+04
 1.475390248E+03	 2.398180078E+04
 1.475911917E+03	 2.410080078E+04
 1.476433532E+03	 2.394219922E+04
 1.476955092E+03	 2.404619922E+04
 1.477476597E+03	 2.388800000E+04
 1.477998047E+03	 2.394400000E+04
 1.478519442E+03	 2.379580078E+04
 1.479040783E+03	 2.390980078E+04
 1.479562068E+03	 2.381819922E+04
 1.480083299E+03	 2.385900000E+04
 1.480604475E+03	 2.386040039E+04
 1.481125596E+03	 2.385619922E+04
 1.481646663E+03	 2.390240039E+04
 1.482167674E+03	 2.380259961E+04
 1.482688631E+03	 2.379400000E+04
 1.483209533E+03	 2.367359961E+04
 1.483730380E+03	 2.366459961E+04
 1.484251172E+03	 2.365659961E+04
 1.484771909E+03	 2.368919922E+04
 1.485292592E+03	 2.369400000E+04
 1.485813220E+03	 2.371159961E+04
 1.486333793E+03	 2.362019922E+04
 1.486854311E+03	 2.363680078E+04
 1.487374775E+03	 2.353359961E+04
 1.487895183E+03	 2.351580078E+04
 1.488415537E+03	 2.352440039E+04
 1.488935836E+03	 2.352019922E+04
 1.489456081E+03	 2.360059961E+04
 1.489976270E+03	 2.345819922E+04
 1.490496405E+03	 2.351400000E+04
 1.491016485E+03	 2.339580078E+04
 1.491536511E+03	 2.343740039E+04
 1.492056481E+03	 2.347440039E+04
 1.492576397E+03	 2.349140039E+04
 1.493096258E+03	 2.338400000E+04
 1.493616064E+03	 2.335400000E+04
 1.494135816E+03	 2.334259961E+04
 1.494655513E+03	 2.330500000E+04
 1.495175155E+03	 2.328459961E+04
 1.495694742E+03	 2.333900000E+04
 1.496214274E+03	 2.327340039E+04
 1.496733752E+03	 2.324840039E+04
 1.497253175E+03	 2.325240039E+04
 1.497772544E+03	 2.333500000E+04
 1.498291858E+03	 2.325340039E+04
 1.498811116E+03	 2.331419922E+04
 1.499330321E+03	 2.315780078E+04
 1.499849470E+03	 2.321780078E+04
 1.500368565E+03	 2.317019922E+04
 1.500887605E+03	 2.322900000E+04
 1.501406591E+03	 2.311359961E+04
 1.501925521E+03	 2.311959961E+04
 1.502444397E+03	 2.308480078E+04
 1.502963219E+03	 2.318240039E+04
 1.503481985E+03	 2.312000000E+04
 1.504000697E+03	 2.311019922E+04
 1.504519355E+03	 2.304219922E+04
 1.505037957E+03	 2.309780078E+04
 1.505556505E+03	 2.305859961E+04
 1.506074999E+03	 2.300419922E+04
 1.506593437E+03	 2.296119922E+04
 1.507111821E+03	 2.300640039E+04
 1.507630150E+03	 2.287340039E+04
 1.508148425E+03	 2.286859961E+04
 1.508666645E+03	 2.294100000E+04
 1.509184810E+03	 2.293019922E+04
 1.509702921E+03	 2.288219922E+04
 1.510220977E+03	 2.286240039E+04
 1.510738979E+03	 2.283340039E+04
 1.511256925E+03	 2.287580078E+04
 1.511774817E+03	 2.287159961E+04
 1.512292655E+03	 2.283500000E+04
 1.512810438E+03	 2.281740039E+04
 1.513328166E+03	 2.276959961E+04
 1.513845840E+03	 2.276159961E+04
 1.514363459E+03	 2.271819922E+04
 1.514881023E+03	 2.273940039E+04
 1.515398533E+03	 2.276919922E+04
 1.515915988E+03	 2.277859961E+04
 1.516433389E+03	 2.270500000E+04
 1.516950734E+03	 2.267559961E+04
 1.517468026E+03	 2.268519922E+04
 1.517985263E+03	 2.268600000E+04
 1.518502445E+03	 2.275780078E+04
 1.519019572E+03	 2.267500000E+04
 1.519536645E+03	 2.255159961E+04
 1.520053664E+03	 2.268259961E+04
 1.520570628E+03	 2.274580078E+04
 1.521087537E+03	 2.249659961E+04
 1.521604392E+03	 2.272580078E+04
 1.522121192E+03	 2.254019922E+04
 1.522637937E+03	 2.268080078E+04
 1.523154628E+03	 2.256640039E+04
 1.523671265E+03	 2.253419922E+04
 1.524187847E+03	 2.259019922E+04
 1.524704374E+03	 2.252900000E+04
 1.525220847E+03	 2.260440039E+04
 1.525737265E+03	 2.254359961E+04
 1.526253629E+03	 2.261040039E+04
 1.526769938E+03	 2.249600000E+04
 1.527286192E+03	 2.256080078E+04
 1.527802392E+03	 2.251419922E+04
 1.528318538E+03	 2.250280078E+04
 1.528834629E+03	 2.245100000E+04
 1.529350666E+03	 2.250540039E+04
 1.529866648E+03	 2.245119922E+04
 1.530382575E+03	 2.243919922E+04
 1.530898448E+03	 2.247319922E+04
 1.531414266E+03	 2.246840039E+04
 1.531930030E+03	 2.244019922E+04
 1.532445740E+03	 2.240719922E+04
 1.532961395E+03	 2.254340039E+04
 1.533476995E+03	 2.234919922E+04
 1.533992541E+03	 2.233680078E+04
 1.534508033E+03	 2.232259961E+04
 1.535023470E+03	 2.230419922E+04
 1.535538852E+03	 2.234040039E+04
 1.536054180E+03	 2.235380078E+04
 1.536569454E+03	 2.243280078E+04
 1.537084673E+03	 2.221940039E+04
 1.537599837E+03	 2.234300000E+04
 1.538114947E+03	 2.227940039E+04
 1.538630003E+03	 2.226540039E+04
 1.539145004E+03	 2.227880078E+04
 1.539659951E+03	 2.227840039E+04
 1.540174843E+03	 2.228180078E+04
 1.540689681E+03	 2.230040039E+04
 1.541204465E+03	 2.235040039E+04
 1.541719194E+03	 2.220700000E+04
 1.542233868E+03	 2.223840039E+04
 1.542748488E+03	 2.222059961E+04
 1.543263054E+03	 2.227319922E+04
 1.543777565E+03	 2.217559961E+04
 1.544292022E+03	 2.220680078E+04
 1.544806424E+03	 2.219659961E+04
 1.545320772E+03	 2.219719922E+04
 1.545835066E+03	 2.219119922E+04
 1.546349305E+03	 2.216919922E+04
 1.546863489E+03	 2.211180078E+04
 1.547377620E+03	 2.222500000E+04
 1.547891696E+03	 2.224040039E+04
 1.548405717E+03	 2.204900000E+04
 1.548919684E+03	 2.208680078E+04
 1.549433597E+03	 2.202440039E+04
 1.549947455E+03	 2.218280078E+04
 1.550461259E+03	 2.204740039E+04
 1.550975009E+03	 2.203480078E+04
 1.551488704E+03	 2.206619922E+04
 1.552002345E+03	 2.207900000E+04
 1.552515931E+03	 2.212500000E+04
 1.553029463E+03	 2.201559961E+04
 1.553542941E+03	 2.204819922E+04
 1.554056364E+03	 2.195619922E+04
 1.554569733E+03	 2.210919922E+04
 1.555083048E+03	 2.200819922E+04
 1.555596308E+03	 2.209100000E+04
 1.556109514E+03	 2.191700000E+04
 1.556622665E+03	 2.198219922E+04
 1.557135762E+03	 2.192500000E+04
 1.557648805E+03	 2.202480078E+04
 1.558161794E+03	 2.200040039E+04
 1.558674728E+03	 2.197880078E+04
 1.559187608E+03	 2.196719922E+04
 1.559700433E+03	 2.180759961E+04
 1.560213205E+03	 2.197659961E+04
 1.560725921E+03	 2.177619922E+04
 1.561238584E+03	 2.197319922E+04
 1.561751192E+03	 2.184319922E+04
 1.562263746E+03	 2.200740039E+04
 1.562776246E+03	 2.189859961E+04
 1.563288691E+03	 2.181340039E+04
 1.563801082E+03	 2.185040039E+04
 1.564313419E+03	 2.179100000E+04
 1.564825701E+03	 2.189340039E+04
 1.565337929E+03	 2.175700000E+04
 1.565850103E+03	 2.182359961E+04
 1.566362223E+03	 2.159059961E+04
 1.566874288E+03	 2.181700000E+04
 1.567386299E+03	 2.182219922E+04
 1.567898256E+03	 2.174659961E+04
 1.568410158E+03	 2.169259961E+04
 1.568922007E+03	 2.168359961E+04
 1.569433800E+03	 2.173700000E+04
 1.569945540E+03	 2.163919922E+04
 1.570457226E+03	 2.179580078E+04
 1.570968857E+03	 2.163340039E+04
 1.571480434E+03	 2.178400000E+04
 1.571991956E+03	 2.169019922E+04
 1.572503425E+03	 2.173059961E+04
 1.573014839E+03	 2.161980078E+04
 1.573526199E+03	 2.160600000E+04
 1.574037505E+03	 2.159780078E+04
 1.574548756E+03	 2.153459961E+04
 1.575059953E+03	 2.161019922E+04
 1.575571096E+03	 2.153080078E+04
 1.576082185E+03	 2.174759961E+04
 1.576593220E+03	 2.155259961E+04
 1.577104200E+03	 2.174680078E+04
 1.577615126E+03	 2.155959961E+04
 1.578125998E+03	 2.162259961E+04
 1.578636816E+03	 2.147119922E+04
 1.579147580E+03	 2.147400000E+04
 1.579658289E+03	 2.151380078E+04
 1.580168944E+03	 2.151219922E+04
 1.580679545E+03	 2.140540039E+04
 1.581190092E+03	 2.128919922E+04
 1.581700585E+03	 2.138600000E+04
 1.582211023E+03	 2.121059961E+04
 1.582721407E+03	 2.140319922E+04
 1.583231737E+03	 2.124240039E+04
 1.583742013E+03	 2.134419922E+04
 1.584252235E+03	 2.128319922E+04
 1.584762403E+03	 2.129919922E+04
 1.585272516E+03	 2.135500000E+04
 1.585782575E+03	 2.132740039E+04
 1.586292581E+03	 2.144019922E+04
 1.586802532E+03	 2.123800000E+04
 1.587312428E+03	 2.142880078E+04
 1.587822271E+03	 2.130600000E+04
 1.588332060E+03	 2.134380078E+04
 1.588841794E+03	 2.132819922E+04
 1.589351474E+03	 2.133340039E+04
 1.589861100E+03	 2.115959961E+04
 1.590370672E+03	 2.119340039E+04
 1.590880190E+03	 2.133640039E+04
 1.591389654E+03	 2.117740039E+04
 1.591899064E+03	 2.138000000E+04
 1.592408419E+03	 2.115719922E+04
