1042.555005	709.5999756
1043.121438	709.4000244
1043.687813	711.5999756
1044.254131	709.7999878
1044.820391	710.0
1045.386593	706.5999756
1045.952737	702.2000122
1046.518824	702.5999756
1047.084853	702.2000122
1047.650824	698.4000244
1048.216738	703.2000122
1048.782593	702.2000122
1049.348392	702.4000244
1049.914132	697.5999756
1050.479815	699.4000244
1051.04544	700.5999756
1051.611007	694.2000122
1052.176517	693.5999756
1052.741968	695.7999878
1053.307363	697.7999878
1053.872699	694.4000244
1054.437978	698.2000122
1055.003199	694.7999878
1055.568363	695.5999756
1056.133469	689.5999756
1056.698517	691.2000122
1057.263508	694.4000244
1057.82844	691.0
1058.393316	693.0
1058.958133	688.5999756
1059.522893	688.2000122
1060.087596	691.2000122
1060.652241	689.2000122
1061.216828	689.0
1061.781357	688.2000122
1062.345829	691.2000122
1062.910243	689.4000244
1063.4746	687.7999878
1064.038899	688.7999878
1064.60314	686.5999756
1065.167324	686.5999756
1065.731451	689.0
1066.295519	689.5999756
1066.85953	687.7999878
1067.423484	690.0
1067.98738	684.2000122
1068.551218	689.0
1069.114999	685.2000122
1069.678722	686.5999756
1070.242388	691.2000122
1070.805996	687.7999878
1071.369546	689.2000122
1071.933039	687.4000244
1072.496475	687.5999756
1073.059853	685.5999756
1073.623173	686.5999756
1074.186436	686.0
1074.749641	684.7999878
1075.312789	683.7999878
1075.875879	684.5999756
1076.438912	682.7999878
1077.001887	687.0
1077.564805	685.5999756
1078.127665	686.0
1078.690468	688.4000244
1079.253213	686.2000122
1079.815901	683.5999756
1080.378531	687.2000122
1080.941104	687.0
1081.50362	685.4000244
1082.066077	684.4000244
1082.628478	688.4000244
1083.190821	680.7999878
1083.753106	689.5999756
1084.315334	682.5999756
1084.877505	685.7999878
1085.439618	685.2000122
1086.001673	683.7999878
1086.563671	684.7999878
1087.125612	680.4000244
1087.687495	685.7999878
1088.249321	681.7999878
1088.81109	684.2000122
1089.372801	683.4000244
1089.934454	681.4000244
1090.49605	683.0
1091.057589	686.2000122
1091.619071	684.0
1092.180495	685.4000244
1092.741861	683.5999756
1093.30317	687.7999878
1093.864422	683.0
1094.425616	683.2000122
1094.986753	680.2000122
1095.547833	684.0
1096.108855	685.2000122
1096.66982	683.2000122
1097.230728	691.0
1097.791578	683.2000122
1098.35237	684.2000122
1098.913106	683.2000122
1099.473784	684.5999756
1100.034405	684.7999878
1100.594968	684.2000122
1101.155474	682.0
1101.715923	683.7999878
1102.276314	684.0
1102.836648	681.2000122
1103.396925	686.0
1103.957144	684.4000244
1104.517306	683.7999878
1105.077411	685.0
1105.637459	677.7999878
1106.197449	684.2000122
1106.757382	685.2000122
1107.317257	687.4000244
1107.877075	683.5999756
1108.436836	683.2000122
1108.99654	683.7999878
1109.556187	687.7999878
1110.115776	684.7999878
1110.675308	684.5999756
1111.234782	684.0
1111.7942	682.0
1112.35356	682.4000244
1112.912862	681.7999878
1113.472108	680.2000122
1114.031296	685.2000122
1114.590427	682.2000122
1115.149501	686.2000122
1115.708518	680.2000122
1116.267477	685.7999878
1116.826379	683.5999756
1117.385224	683.2000122
1117.944012	682.0
1118.502743	682.4000244
1119.061416	683.5999756
1119.620032	682.2000122
1120.178591	682.2000122
1120.737092	683.5999756
1121.295537	678.4000244
1121.853924	686.0
1122.412254	680.7999878
1122.970527	681.7999878
1123.528743	683.2000122
1124.086901	686.4000244
1124.645003	686.2000122
1125.203047	683.4000244
1125.761034	684.2000122
1126.318964	682.4000244
1126.876836	683.4000244
1127.434652	686.0
1127.99241	682.4000244
1128.550112	682.7999878
1129.107756	679.7999878
1129.665343	680.4000244
1130.222873	681.0
1130.780345	681.4000244
1131.337761	682.4000244
1131.895119	682.5999756
1132.452421	680.0
1133.009665	680.7999878
1133.566852	685.7999878
1134.123982	682.5999756
1134.681055	682.2000122
1135.238071	684.5999756
1135.79503	679.7999878
1136.351931	682.7999878
1136.908776	683.5999756
1137.465563	681.2000122
1138.022294	682.4000244
1138.578967	683.4000244
1139.135583	682.0
1139.692142	680.5999756
1140.248645	681.4000244
1140.80509	684.2000122
1141.361478	681.7999878
1141.917809	681.2000122
1142.474083	680.4000244
1143.030299	680.7999878
1143.586459	679.5999756
1144.142562	681.7999878
1144.698608	684.7999878
1145.254596	682.7999878
1145.810528	680.2000122
1146.366403	683.0
1146.922221	683.2000122
1147.477981	685.4000244
1148.033685	683.5999756
1148.589332	682.5999756
1149.144921	679.4000244
1149.700454	683.0
1150.255929	683.0
1150.811348	687.5999756
1151.36671	682.0
1151.922014	684.7999878
1152.477262	685.4000244
1153.032453	685.2000122
1153.587587	684.7999878
1154.142664	682.5999756
1154.697683	682.2000122
1155.252646	683.2000122
1155.807552	685.5999756
1156.362401	684.2000122
1156.917193	683.4000244
1157.471928	681.7999878
1158.026607	681.4000244
1158.581228	678.7999878
1159.135792	688.7999878
1159.690299	683.5999756
1160.24475	680.2000122
1160.799143	684.0
1161.35348	681.7999878
1161.90776	685.2000122
1162.461983	686.2000122
1163.016149	683.7999878
1163.570258	683.5999756
1164.12431	680.2000122
1164.678305	676.5999756
1165.232243	683.2000122
1165.786125	682.0
1166.339949	683.7999878
1166.893717	681.4000244
1167.447428	679.0
1168.001082	677.5999756
1168.554679	679.0
1169.108219	683.2000122
1169.661702	678.0
1170.215129	680.4000244
1170.768498	679.2000122
1171.321811	682.0
1171.875067	679.2000122
1172.428266	681.2000122
1172.981409	682.4000244
1173.534494	679.7999878
1174.087523	683.0
1174.640495	679.0
1175.19341	682.2000122
1175.746268	682.2000122
1176.299069	682.5999756
1176.851814	680.0
1177.404501	679.5999756
1177.957132	680.5999756
1178.509707	682.4000244
1179.062224	679.5999756
1179.614685	681.0
1180.167088	680.2000122
1180.719435	682.2000122
1181.271726	679.2000122
1181.823959	679.5999756
1182.376136	684.0
1182.928256	679.2000122
1183.480319	680.5999756
1184.032325	680.4000244
1184.584275	680.2000122
1185.136168	682.0
1185.688004	681.5999756
1186.239784	679.7999878
1186.791506	680.7999878
1187.343172	678.7999878
1187.894781	681.4000244
1188.446334	680.5999756
1188.99783	685.0
1189.549269	678.7999878
1190.100651	676.7999878
1190.651977	678.5999756
1191.203246	676.7999878
1191.754458	680.2000122
1192.305613	681.5999756
1192.856712	680.5999756
1193.95874	677.4000244
1194.509669	679.4000244
1195.060541	678.4000244
1195.611356	681.0
1196.162115	679.5999756
1196.712817	683.7999878
1197.263462	682.7999878
1197.814051	678.0
1198.364583	678.5999756
1198.915058	681.4000244
1199.465477	682.5999756
1200.015839	682.2000122
1200.566145	679.7999878
1201.116394	682.2000122
1201.666586	678.0
1202.216721	682.0
1202.7668	677.7999878
1203.316823	681.4000244
1203.866788	679.5999756
1204.416697	679.0
1204.96655	681.0
1205.516346	680.7999878
1206.066085	682.4000244
1206.615768	684.5999756
1207.165394	680.4000244
1207.714963	679.7999878
1208.264476	679.2000122
1208.813932	683.7999878
1209.363332	683.2000122
1209.912675	677.2000122
1210.461962	678.0
1211.011192	683.2000122
1211.560365	684.2000122
1212.109482	679.2000122
1212.658542	679.0
1213.207546	680.0
1213.756493	680.7999878
1214.305384	682.2000122
1214.854218	683.0
1215.402995	679.0
1215.951716	681.5999756
1216.500381	681.2000122
1217.048989	683.0
1217.59754	683.0
1218.146035	681.2000122
1218.694473	682.4000244
1219.242855	680.4000244
1219.79118	679.4000244
1220.339449	677.4000244
1220.887662	680.2000122
1221.435817	679.7999878
1221.983917	681.7999878
1222.531959	678.7999878
1223.079946	680.5999756
1223.627876	680.4000244
1224.175749	680.7999878
1224.723566	682.5999756
1225.271326	678.4000244
1225.81903	686.5999756
1226.366678	685.4000244
1226.914269	681.7999878
1227.461803	683.0
1228.009281	681.0
1228.556703	680.4000244
1229.104068	685.7999878
1229.651377	680.7999878
1230.198629	681.4000244
1230.745825	677.7999878
1231.292965	682.2000122
1231.840048	683.0
1232.387074	681.7999878
1232.934044	679.7999878
1233.480958	680.5999756
1234.027815	680.5999756
1234.574616	680.2000122
1235.121361	682.7999878
1235.668049	679.4000244
1236.214681	678.2000122
1236.761256	679.0
1237.307775	678.0
1237.854237	681.0
1238.400643	680.2000122
1238.946993	679.7999878
1239.493287	680.7999878
1240.039524	678.2000122
1240.585704	679.5999756
1241.131828	682.0
1241.677896	679.2000122
1242.223908	677.7999878
1242.769863	682.0
1243.315762	679.2000122
1243.861604	680.0
1244.40739	680.7999878
1244.95312	681.4000244
1245.498794	678.4000244
1246.044411	679.7999878
1246.589972	678.2000122
1247.135476	678.5999756
1247.680924	682.2000122
1248.226316	681.0
1248.771652	679.2000122
1249.316931	681.5999756
1249.862154	678.2000122
1250.40732	678.7999878
1250.95243	681.2000122
1251.497484	680.7999878
1252.042482	676.7999878
1252.587423	679.0
1253.132309	679.5999756
1253.677137	675.0
1254.22191	678.7999878
1254.766626	678.7999878
1255.311286	680.2000122
1255.85589	677.0
1256.400437	681.7999878
1256.944929	675.2000122
1257.489363	678.7999878
1258.033742	677.0
1258.578065	677.2000122
1259.122331	677.0
1259.666541	678.5999756
1260.210694	684.2000122
1260.754792	678.2000122
1261.298833	679.0
1261.842818	679.7999878
1262.386747	679.0
1262.930619	680.0
1263.474436	679.4000244
1264.018196	684.4000244
1264.5619	687.7999878
1265.105548	693.4000244
1265.649139	692.2000122
1266.192674	684.7999878
1266.736154	681.4000244
1267.279576	680.5999756
1267.822943	677.5999756
1268.366254	679.2000122
1268.909508	676.4000244
1269.452706	674.5999756
1269.995848	678.7999878
1270.538934	679.4000244
1271.081964	674.4000244
1271.624937	677.2000122
1272.167855	680.5999756
1272.710716	677.7999878
1273.253521	677.2000122
1273.79627	676.2000122
1274.338962	677.0
1274.881599	676.0
1275.42418	678.0
1275.966704	679.0
1276.509172	676.5999756
1277.051584	677.0
1277.59394	674.0
1278.13624	672.7999878
1278.678484	677.5999756
1279.220671	678.0
1279.762803	682.0
1280.304878	679.5999756
1280.846897	679.0
1281.388861	677.4000244
1281.930768	679.4000244
1282.472619	680.0
1283.014414	681.7999878
1283.556152	682.0
1284.097835	690.2000122
1284.639462	718.0
1285.181032	831.7999878
1285.722547	890.5999756
1286.264005	749.5999756
1286.805408	691.0
1287.346754	682.0
1287.888044	682.7999878
1288.429278	676.5999756
1288.970457	678.2000122
1289.511579	677.7999878
1290.052645	676.2000122
1290.593655	679.5999756
1291.134609	679.0
1291.675507	679.5999756
1292.216349	678.2000122
1292.757135	673.0
1293.297865	677.0
1293.838539	675.4000244
1294.379156	680.0
1294.919718	675.2000122
1295.460224	678.5999756
1296.000674	679.0
1296.541068	679.2000122
1297.081406	678.0
1297.621688	678.7999878
1298.161913	673.7999878
1298.702083	676.4000244
1299.242197	677.0
1299.782255	676.4000244
1300.322257	677.2000122
1300.862203	675.7999878
1301.402093	677.4000244
1301.941927	675.4000244
1302.481705	676.5999756
1303.021427	678.5999756
1303.561094	676.7999878
1304.100704	673.7999878
1304.640258	676.5999756
1305.179756	677.5999756
1305.719199	677.0
1306.258585	674.5999756
1306.797916	679.4000244
1307.33719	676.2000122
1307.876409	674.0
1308.415572	676.2000122
1308.954679	677.5999756
1309.49373	675.5999756
1310.032725	677.4000244
1310.571664	676.7999878
1311.110547	677.0
1311.649374	673.2000122
1312.188146	675.4000244
1312.726861	677.7999878
1313.265521	677.4000244
1313.804125	675.0
1314.342672	677.4000244
1314.881164	676.4000244
1315.419601	681.7999878
1315.957981	677.4000244
1316.496305	675.5999756
1317.034574	675.4000244
1317.572786	674.4000244
1318.110943	676.5999756
1318.649044	674.4000244
1319.187089	673.5999756
1319.725078	675.5999756
1320.263012	675.2000122
1320.800889	674.4000244
1321.338711	675.2000122
1321.876477	678.4000244
1322.414187	677.0
1322.951841	674.5999756
1323.489439	677.4000244
1324.026982	684.2000122
1324.564469	674.0
1325.101899	675.0
1325.639275	678.5999756
1326.176594	676.0
1326.713857	675.4000244
1327.251065	679.0
1327.788217	674.0
1328.325313	673.7999878
1328.862353	677.7999878
1329.399338	678.2000122
1329.936267	676.2000122
1330.47314	680.2000122
1331.009957	673.7999878
1331.546718	676.0
1332.083424	679.4000244
1332.620074	676.0
1333.156668	676.0
1333.693207	675.5999756
1334.229689	674.7999878
1334.766116	675.0
1335.302487	676.7999878
1335.838803	675.7999878
1336.375062	675.7999878
1336.911266	677.2000122
1337.447414	677.4000244
1337.983507	679.0
1338.519543	675.4000244
1339.055524	674.0
1339.59145	679.4000244
1340.127319	678.2000122
1340.663133	675.0
1341.198891	679.2000122
1341.734594	678.4000244
1342.27024	677.0
1342.805831	677.2000122
1343.341367	677.7999878
1343.876846	677.2000122
1344.41227	678.0
1344.947639	675.5999756
1345.482951	676.2000122
1346.018208	678.4000244
1346.553409	678.4000244
1347.088555	674.7999878
1347.623645	676.5999756
1348.158679	678.5999756
1348.693658	680.5999756
1349.22858	676.5999756
1349.763448	678.4000244
1350.298259	675.7999878
1350.833015	677.2000122
1351.367716	676.5999756
1351.90236	677.2000122
1352.436949	677.5999756
1352.971483	677.0
1353.50596	675.7999878
1354.040383	676.2000122
1354.574749	677.0
1355.10906	680.5999756
1355.643315	676.7999878
1356.177515	676.4000244
1356.711659	679.4000244
1357.245747	678.2000122
1357.77978	676.7999878
1358.313757	674.5999756
1358.847679	674.2000122
1359.381545	676.5999756
1359.915356	677.2000122
1360.44911	675.2000122
1360.98281	674.0
1361.516453	675.5999756
1362.050042	673.2000122
1362.583574	673.5999756
1363.117051	676.4000244
1363.650473	678.0
1364.183838	677.7999878
1364.717149	677.2000122
1365.250404	677.2000122
1365.783603	677.7999878
1366.316746	678.2000122
1366.849834	677.4000244
1367.382867	675.4000244
1367.915844	677.2000122
1368.448766	675.0
1368.981631	676.5999756
1369.514442	675.0
1370.047197	676.0
1370.579896	681.2000122
1371.11254	678.2000122
1371.645128	675.2000122
1372.177661	675.7999878
1372.710139	672.5999756
1373.24256	677.4000244
1373.774927	676.0
1374.307238	676.7999878
1374.839493	674.2000122
1375.371693	680.7999878
1375.903837	675.0
1376.435926	678.0
1376.967959	676.2000122
1377.499937	677.7999878
1378.03186	676.0
1378.563727	676.5999756
1379.095538	676.4000244
1379.627294	676.7999878
1380.158995	675.4000244
1380.69064	680.7999878
1381.222229	679.2000122
1381.753764	675.7999878
1382.285242	677.4000244
1382.816666	673.2000122
1383.348033	676.7999878
1383.879346	678.5999756
1384.410603	676.0
1384.941804	676.5999756
1385.472951	678.4000244
1386.004041	679.0
1386.535077	680.0
1387.066056	684.7999878
1387.596981	700.2000122
1388.12785	783.5999756
1388.658664	1032.199951
1389.189422	928.4000244
1389.720125	728.0
1390.250772	690.7999878
1390.781364	681.4000244
1391.311901	678.7999878
1391.842382	679.2000122
1392.372808	682.5999756
1392.903178	677.7999878
1393.433494	678.0
1393.963753	676.7999878
1394.493958	676.4000244
1395.024107	671.5999756
1395.5542	674.7999878
1396.084239	677.0
1396.614222	677.7999878
1397.144149	677.2000122
1397.674021	680.7999878
1398.203838	675.4000244
1398.7336	677.5999756
1399.263306	679.0
1399.792957	676.5999756
1400.322552	676.5999756
1400.852093	673.2000122
1401.381577	676.4000244
1401.911007	678.7999878
1402.440381	675.4000244
1402.9697	674.2000122
1403.498964	679.4000244
1404.028172	675.2000122
1404.557325	675.4000244
1405.086423	671.0
1405.615465	674.5999756
1406.144452	676.0
1406.673384	678.2000122
1407.20226	679.0
1407.731082	677.2000122
1408.259847	678.4000244
1408.788558	680.0
1409.317213	689.5999756
1409.845814	703.5999756
1410.374358	704.5999756
1410.902848	683.4000244
1411.431282	678.7999878
1411.959661	674.5999756
1412.487985	678.4000244
1413.016253	677.0
1413.544467	675.4000244
1414.072625	675.4000244
1414.600727	673.0
1415.128775	678.4000244
1415.656767	685.7999878
1416.184704	676.4000244
1416.712586	676.0
1417.240413	676.2000122
1417.768184	676.2000122
1418.2959	673.7999878
1418.823561	672.4000244
1419.351167	676.0
1419.878717	675.5999756
1420.406213	676.5999756
1420.933653	671.4000244
1421.461038	676.4000244
1421.988367	673.4000244
1422.515642	676.2000122
1423.042861	671.0
1423.570025	673.5999756
1424.097134	674.0
1424.624188	674.2000122
1425.151187	676.4000244
1425.67813	678.4000244
1426.205018	674.0
1426.731851	678.5999756
1427.258629	673.2000122
1427.785352	673.0
1428.31202	676.4000244
1428.838632	674.5999756
1429.365189	672.4000244
1429.891692	675.5999756
1430.418139	674.2000122
1430.94453	671.2000122
1431.470867	675.4000244
1431.997149	675.5999756
1432.523375	672.4000244
1433.049546	676.7999878
1433.575663	677.2000122
1434.101724	674.0
1434.62773	676.2000122
1435.15368	676.2000122
1435.679576	675.0
1436.205417	673.4000244
1436.731202	674.4000244
1437.256933	672.2000122
1437.782608	675.5999756
1438.308228	673.7999878
1438.833793	676.5999756
1439.359303	673.4000244
1439.884758	674.5999756
1440.410158	673.5999756
1440.935503	673.7999878
1441.460793	676.5999756
1441.986027	675.0
1442.511207	674.4000244
1443.036331	676.5999756
1443.561401	677.4000244
1444.086415	672.5999756
1444.611374	674.5999756
1445.136279	674.2000122
1445.661128	674.4000244
1446.185922	673.2000122
1446.710661	671.7999878
1447.235345	676.5999756
1447.759974	674.2000122
1448.284548	673.2000122
1448.809067	674.7999878
1449.333531	673.2000122
1449.85794	671.0
1450.382294	673.7999878
1450.906593	676.5999756
1451.430837	673.7999878
1451.955026	671.5999756
1452.47916	674.4000244
1453.003239	674.2000122
1453.527263	673.2000122
1454.051231	672.4000244
1454.575145	675.7999878
1455.099004	673.7999878
1455.622808	671.7999878
1456.146557	672.5999756
1456.670251	672.0
1457.19389	674.0
1457.717474	676.0
1458.241003	675.2000122
1458.764477	675.4000244
1459.287896	671.0
1459.81126	676.4000244
1460.334569	673.5999756
1460.857824	674.5999756
1461.381023	673.4000244
1461.904167	674.7999878
1462.427257	673.0
1462.950291	676.7999878
1463.473271	674.0
1463.996195	674.5999756
1464.519065	672.0
1465.041879	675.4000244
1465.564639	677.0
1466.087344	674.0
1466.609994	674.2000122
1467.132589	675.2000122
1467.655129	672.0
1468.177614	674.2000122
1468.700045	672.5999756
1469.22242	673.0
1469.744741	674.0
1470.267006	673.2000122
1470.789217	670.5999756
1471.311373	676.5999756
1471.833474	675.5999756
1472.35552	673.5999756
1472.877511	675.2000122
1473.399447	674.2000122
1473.921329	676.0
1474.443155	670.7999878
1474.964927	674.0
1475.486644	673.2000122
1476.008306	671.5999756
1476.529913	674.5999756
1477.051465	676.7999878
1477.572962	674.4000244
1478.094405	671.7999878
1478.615793	673.5999756
1479.137126	674.5999756
1479.658404	675.2000122
1480.179627	673.2000122
1480.700795	674.0
1481.221909	676.0
1481.742967	672.0
1482.263971	674.7999878
1482.78492	677.4000244
1483.305815	674.4000244
1483.826654	674.0
1484.347439	672.5999756
1484.868169	671.7999878
1485.388844	674.5999756
1485.909464	674.5999756
1486.43003	673.7999878
1486.95054	674.7999878
1487.470996	672.7999878
1487.991397	672.5999756
1488.511744	672.4000244
1489.032035	673.4000244
1489.552272	673.4000244
1490.072454	672.7999878
1490.592581	676.2000122
1491.112654	676.4000244
1491.632671	674.5999756
1492.152634	676.4000244
1492.672542	673.2000122
1493.192396	676.4000244
1493.712195	675.4000244
1494.231939	674.0
1494.751628	672.4000244
1495.271262	670.2000122
1495.790842	672.4000244
1496.310367	672.7999878
1496.829837	673.7999878
1497.349253	672.0
1497.868614	673.2000122
1498.38792	673.4000244
1498.907171	676.4000244
1499.426368	672.4000244
1499.94551	682.4000244
1500.464597	672.2000122
1500.98363	674.4000244
1501.502607	671.0
1502.021531	673.7999878
1502.540399	674.4000244
1503.059213	676.5999756
1503.577972	675.2000122
1504.096676	673.0
1504.615326	671.2000122
1505.133921	671.2000122
1505.652462	674.4000244
1506.170947	673.5999756
1506.689378	671.5999756
1507.207755	673.2000122
1507.726077	671.2000122
1508.244344	672.2000122
1508.762556	673.7999878
1509.280714	673.7999878
1509.798817	673.2000122
1510.316865	674.7999878
1510.834859	680.7999878
1511.352799	673.2000122
1511.870683	672.2000122
1512.388513	673.4000244
1512.906288	671.5999756
1513.424009	673.5999756
1513.941675	674.2000122
1514.459287	673.0
1514.976843	671.0
1515.494346	670.7999878
1516.011793	671.7999878
1516.529186	672.2000122
1517.046525	676.7999878
1517.563809	674.4000244
1518.081038	673.4000244
1518.598212	673.7999878
1519.115332	674.2000122
1519.632398	672.0
1520.149409	669.5999756
1520.666365	672.4000244
1521.183267	671.2000122
1521.700114	674.5999756
1522.216907	673.7999878
1522.733645	674.7999878
1523.250328	675.0
1523.766957	671.5999756
1524.283531	668.0
1524.800051	676.7999878
1525.316516	673.4000244
1525.832927	672.4000244
1526.349283	672.0
1526.865585	670.5999756
1527.381832	673.5999756
1527.898025	671.7999878
1528.414163	673.4000244
1528.930246	676.7999878
1529.446275	670.2000122
1529.96225	671.7999878
1530.47817	673.5999756
1530.994035	670.7999878
1531.509846	673.4000244
1532.025602	675.5999756
1532.541304	669.7999878
1533.056952	673.4000244
1533.572545	670.4000244
1534.088083	672.5999756
1534.603567	671.0
1535.118997	671.5999756
1535.634372	671.7999878
1536.149692	670.2000122
1536.664958	674.2000122
1537.18017	672.5999756
1537.695327	672.5999756
1538.210429	670.5999756
1538.725477	673.4000244
1539.240471	675.2000122
1539.75541	670.2000122
1540.270295	671.5999756
1540.785126	675.2000122
1541.299901	674.5999756
1541.814623	675.2000122
1542.32929	670.5999756
1542.843903	672.2000122
1543.358461	673.0
1543.872964	676.4000244
1544.387414	671.0
1544.901809	671.0
1545.416149	674.0
1545.930435	668.5999756
1546.444667	673.2000122
1546.958844	671.2000122
1547.472967	671.2000122
1547.987035	673.5999756
1548.501049	674.0
1549.015009	673.5999756
1549.528914	671.5999756
1550.042765	672.2000122
1550.556561	668.5999756
1551.070303	672.4000244
1551.583991	673.2000122
1552.097624	671.5999756
1552.611203	672.0
1553.124728	672.2000122
1553.638198	673.7999878
1554.151614	673.2000122
1554.664975	674.0
1555.178282	672.0
1555.691535	671.5999756
1556.204733	673.5999756
1556.717877	671.7999878
1557.230967	670.4000244
1557.744003	675.0
1558.256984	675.4000244
1558.76991	671.4000244
1559.282783	671.2000122
1559.795601	671.4000244
1560.308364	669.5999756
1560.821074	672.2000122
1561.333729	672.2000122
1561.84633	671.5999756
1562.358876	673.2000122
1562.871368	670.0
1563.383806	670.7999878
1563.89619	669.5999756
1564.408519	673.4000244
1564.920794	672.0
1565.433015	672.7999878
1565.945181	672.0
1566.457293	674.5999756
1566.969351	671.5999756
1567.481355	674.0
1567.993304	673.5999756
1568.505199	674.7999878
1569.01704	673.4000244
1569.528826	674.2000122
1570.040558	667.2000122
1570.552236	673.2000122
1571.06386	672.4000244
1571.575429	673.7999878
1572.086945	670.4000244
1572.598406	672.4000244
1573.109812	673.4000244
1573.621165	674.4000244
1574.132463	671.5999756
1574.643707	669.4000244
1575.154897	668.2000122
1575.666033	673.2000122
1576.177114	673.2000122
1576.688141	672.7999878
1577.199114	668.7999878
1577.710033	674.0
1578.220897	668.4000244
1578.731708	672.0
1579.242464	672.2000122
1579.753166	671.4000244
1580.263813	671.4000244
1580.774407	671.0
1581.284946	673.4000244
1581.795432	671.4000244
1582.305863	672.0
1582.816239	672.5999756
1583.326562	671.7999878
1583.836831	672.4000244
1584.347045	672.5999756
1584.857205	672.4000244
1585.367311	673.2000122
1585.877363	673.2000122
1586.387361	671.5999756
1586.897304	671.4000244
1587.407194	670.5999756
1587.917029	672.5999756
1588.42681	670.0
1588.936537	671.4000244
1589.44621	670.0
1589.955829	669.5999756
1590.465393	669.7999878
1590.974904	670.7999878
1591.48436	669.5999756
1591.993762	670.5999756
1592.50311	672.0
