1043.121438	784.5999756
1043.687813	785.5999756
1044.254131	781.7999878
1044.820391	784.2000122
1045.386593	788.0
1045.952737	779.0
1046.518824	780.0
1047.084853	778.0
1047.650824	779.5999756
1048.216738	768.4000244
1048.782593	779.7999878
1049.348392	773.7999878
1049.914132	780.0
1050.479815	776.7999878
1051.04544	780.2000122
1051.611007	772.7999878
1052.176517	776.0
1052.741968	772.0
1053.307363	772.5999756
1053.872699	771.7999878
1054.437978	774.4000244
1055.003199	769.2000122
1055.568363	772.2000122
1056.133469	776.4000244
1056.698517	772.5999756
1057.263508	771.7999878
1057.82844	769.0
1058.393316	769.2000122
1058.958133	773.0
1059.522893	768.7999878
1060.087596	772.0
1060.652241	770.0
1061.216828	769.4000244
1061.781357	768.4000244
1062.345829	770.7999878
1062.910243	763.7999878
1063.4746	762.4000244
1064.038899	773.2000122
1064.60314	772.0
1065.167324	766.4000244
1065.731451	772.4000244
1066.295519	769.0
1066.85953	770.0
1067.423484	769.0
1067.98738	770.0
1068.551218	768.0
1069.114999	766.2000122
1069.678722	763.5999756
1070.242388	769.2000122
1070.805996	771.2000122
1071.369546	768.0
1071.933039	770.4000244
1072.496475	770.5999756
1073.059853	774.5999756
1073.623173	774.0
1074.186436	768.5999756
1074.749641	771.2000122
1075.312789	767.0
1075.875879	764.4000244
1076.438912	762.2000122
1077.001887	765.5999756
1077.564805	762.5999756
1078.127665	766.4000244
1078.690468	768.4000244
1079.253213	765.0
1079.815901	767.2000122
1080.378531	767.7999878
1080.941104	766.0
1081.50362	765.7999878
1082.066077	763.4000244
1082.628478	764.7999878
1083.190821	763.5999756
1083.753106	771.5999756
1084.315334	764.0
1084.877505	767.2000122
1085.439618	772.2000122
1086.001673	760.0
1086.563671	766.4000244
1087.125612	763.4000244
1087.687495	763.4000244
1088.249321	760.0
1088.81109	772.2000122
1089.372801	762.7999878
1089.934454	772.0
1090.49605	760.4000244
1091.057589	770.0
1091.619071	766.4000244
1092.180495	762.0
1092.741861	769.4000244
1093.30317	763.7999878
1093.864422	768.5999756
1094.425616	771.2000122
1094.986753	763.7999878
1095.547833	773.0
1096.108855	765.4000244
1096.66982	760.2000122
1097.230728	766.0
1097.791578	766.2000122
1098.35237	760.2000122
1098.913106	763.7999878
1099.473784	760.4000244
1100.034405	755.7999878
1100.594968	763.4000244
1101.155474	761.7999878
1101.715923	762.2000122
1102.276314	759.7999878
1102.836648	759.0
1103.396925	765.7999878
1103.957144	762.7999878
1104.517306	761.0
1105.077411	758.4000244
1105.637459	755.4000244
1106.197449	761.4000244
1106.757382	761.5999756
1107.317257	758.2000122
1107.877075	764.7999878
1108.436836	760.0
1108.99654	760.5999756
1109.556187	764.5999756
1110.115776	760.5999756
1110.675308	762.4000244
1111.234782	761.4000244
1111.7942	756.7999878
1112.35356	763.0
1112.912862	761.4000244
1113.472108	763.4000244
1114.031296	755.0
1114.590427	761.7999878
1115.149501	753.4000244
1115.708518	759.2000122
1116.267477	760.2000122
1116.826379	763.2000122
1117.385224	764.7999878
1117.944012	765.4000244
1118.502743	758.4000244
1119.061416	765.7999878
1119.620032	758.2000122
1120.178591	757.7999878
1120.737092	760.5999756
1121.295537	761.5999756
1121.853924	758.2000122
1122.412254	752.5999756
1122.970527	758.0
1123.528743	764.7999878
1124.086901	754.7999878
1124.645003	750.0
1125.203047	761.2000122
1125.761034	756.0
1126.318964	756.4000244
1126.876836	765.2000122
1127.434652	753.5999756
1127.99241	758.4000244
1128.550112	754.4000244
1129.107756	763.4000244
1129.665343	754.7999878
1130.222873	759.5999756
1130.780345	756.0
1131.337761	765.5999756
1131.895119	757.0
1132.452421	757.2000122
1133.009665	756.7999878
1133.566852	757.2000122
1134.123982	760.0
1134.681055	761.0
1135.238071	759.7999878
1135.79503	761.2000122
1136.351931	758.0
1136.908776	758.7999878
1137.465563	757.4000244
1138.022294	763.2000122
1138.578967	756.2000122
1139.135583	761.5999756
1139.692142	759.7999878
1140.248645	759.7999878
1140.80509	758.2000122
1141.361478	760.4000244
1141.917809	763.4000244
1142.474083	760.4000244
1143.030299	759.4000244
1143.586459	755.4000244
1144.142562	757.5999756
1144.698608	755.0
1145.254596	756.2000122
1145.810528	761.4000244
1146.366403	757.0
1146.922221	758.0
1147.477981	763.5999756
1148.033685	760.0
1148.589332	762.7999878
1149.144921	758.4000244
1149.700454	758.0
1150.255929	758.7999878
1150.811348	759.7999878
1151.36671	750.0
1151.922014	758.7999878
1152.477262	758.4000244
1153.032453	762.5999756
1153.587587	759.7999878
1154.142664	761.2000122
1154.697683	759.7999878
1155.252646	760.2000122
1155.807552	762.4000244
1156.362401	755.4000244
1156.917193	758.2000122
1157.471928	752.5999756
1158.026607	759.4000244
1158.581228	766.7999878
1159.135792	756.5999756
1159.690299	759.5999756
1160.24475	758.7999878
1160.799143	760.0
1161.35348	763.4000244
1161.90776	758.0
1162.461983	765.2000122
1163.016149	757.5999756
1163.570258	759.4000244
1164.12431	758.5999756
1164.678305	755.7999878
1165.232243	754.5999756
1165.786125	765.5999756
1166.339949	756.0
1166.893717	760.2000122
1167.447428	757.7999878
1168.001082	757.7999878
1168.554679	762.0
1169.108219	756.2000122
1169.661702	757.4000244
1170.215129	760.2000122
1170.768498	759.4000244
1171.321811	755.2000122
1171.875067	757.2000122
1172.428266	756.7999878
1172.981409	754.0
1173.534494	757.2000122
1174.087523	760.0
1174.640495	752.2000122
1175.19341	755.7999878
1175.746268	757.5999756
1176.299069	755.4000244
1176.851814	751.4000244
1177.404501	758.4000244
1177.957132	764.0
1178.509707	762.5999756
1179.062224	758.4000244
1179.614685	761.2000122
1180.167088	760.2000122
1180.719435	756.7999878
1181.271726	752.2000122
1181.823959	761.0
1182.376136	758.2000122
1182.928256	762.7999878
1183.480319	754.5999756
1184.032325	751.4000244
1184.584275	751.5999756
1185.136168	757.2000122
1185.688004	758.7999878
1186.239784	762.2000122
1186.791506	759.7999878
1187.343172	755.7999878
1187.894781	752.5999756
1188.446334	758.4000244
1188.99783	755.4000244
1189.549269	758.5999756
1190.100651	756.0
1190.651977	761.5999756
1191.203246	756.0
1191.754458	753.5999756
1192.305613	750.7999878
1192.856712	759.2000122
1193.95874	755.2000122
1194.509669	756.0
1195.060541	751.5999756
1195.611356	759.2000122
1196.162115	756.7999878
1196.712817	757.0
1197.263462	754.7999878
1197.814051	752.7999878
1198.364583	753.7999878
1198.915058	758.4000244
1199.465477	757.2000122
1200.015839	759.2000122
1200.566145	751.0
1201.116394	755.0
1201.666586	754.4000244
1202.216721	750.4000244
1202.7668	757.2000122
1203.316823	757.7999878
1203.866788	757.2000122
1204.416697	759.4000244
1204.96655	761.4000244
1205.516346	752.5999756
1206.066085	755.4000244
1206.615768	755.2000122
1207.165394	762.7999878
1207.714963	759.2000122
1208.264476	759.2000122
1208.813932	758.2000122
1209.363332	754.0
1209.912675	757.4000244
1210.461962	755.4000244
1211.011192	757.4000244
1211.560365	758.7999878
1212.109482	759.2000122
1212.658542	758.7999878
1213.207546	755.2000122
1213.756493	760.4000244
1214.305384	756.7999878
1214.854218	755.4000244
1215.402995	752.2000122
1215.951716	753.2000122
1216.500381	757.4000244
1217.048989	754.4000244
1217.59754	754.5999756
1218.146035	751.5999756
1218.694473	756.7999878
1219.242855	753.2000122
1219.79118	751.2000122
1220.339449	755.0
1220.887662	756.2000122
1221.435817	760.4000244
1221.983917	750.5999756
1222.531959	750.2000122
1223.079946	754.0
1223.627876	750.5999756
1224.175749	762.5999756
1224.723566	753.7999878
1225.271326	757.2000122
1225.81903	754.0
1226.366678	751.7999878
1226.914269	748.5999756
1227.461803	756.2000122
1228.009281	750.5999756
1228.556703	756.4000244
1229.104068	752.2000122
1229.651377	752.2000122
1230.198629	750.4000244
1230.745825	748.2000122
1231.292965	752.2000122
1231.840048	753.5999756
1232.387074	748.0
1232.934044	752.0
1233.480958	745.2000122
1234.027815	750.4000244
1234.574616	753.7999878
1235.121361	750.7999878
1235.668049	754.2000122
1236.214681	758.2000122
1236.761256	746.5999756
1237.307775	751.2000122
1237.854237	754.2000122
1238.400643	752.0
1238.946993	755.0
1239.493287	757.0
1240.039524	752.0
1240.585704	753.2000122
1241.131828	754.5999756
1241.677896	747.0
1242.223908	746.5999756
1242.769863	749.5999756
1243.315762	745.7999878
1243.861604	753.0
1244.40739	753.2000122
1244.95312	750.0
1245.498794	757.5999756
1246.044411	750.5999756
1246.589972	746.0
1247.135476	752.7999878
1247.680924	752.0
1248.226316	753.2000122
1248.771652	753.0
1249.316931	750.2000122
1249.862154	752.0
1250.40732	757.4000244
1250.95243	752.2000122
1251.497484	747.4000244
1252.042482	755.0
1252.587423	746.5999756
1253.132309	752.5999756
1253.677137	748.0
1254.22191	748.7999878
1254.766626	751.5999756
1255.311286	755.4000244
1255.85589	746.5999756
1256.400437	753.4000244
1256.944929	748.5999756
1257.489363	750.2000122
1258.033742	753.5999756
1258.578065	751.2000122
1259.122331	751.7999878
1259.666541	751.0
1260.210694	758.5999756
1260.754792	746.0
1261.298833	751.5999756
1261.842818	754.2000122
1262.386747	748.2000122
1262.930619	748.5999756
1263.474436	744.7999878
1264.018196	750.0
1264.5619	746.2000122
1265.105548	748.4000244
1265.649139	753.5999756
1266.192674	749.4000244
1266.736154	751.4000244
1267.279576	752.4000244
1267.822943	749.2000122
1268.366254	750.2000122
1268.909508	749.0
1269.452706	749.0
1269.995848	746.4000244
1270.538934	744.0
1271.081964	742.7999878
1271.624937	751.4000244
1272.167855	751.2000122
1272.710716	757.0
1273.253521	748.4000244
1273.79627	743.4000244
1274.338962	746.0
1274.881599	747.0
1275.42418	750.5999756
1275.966704	748.7999878
1276.509172	747.5999756
1277.051584	754.2000122
1277.59394	748.0
1278.13624	749.0
1278.678484	746.2000122
1279.220671	746.5999756
1279.762803	745.5999756
1280.304878	750.5999756
1280.846897	751.5999756
1281.388861	746.0
1281.930768	752.4000244
1282.472619	751.5999756
1283.014414	747.7999878
1283.556152	753.0
1284.097835	751.2000122
1284.639462	758.2000122
1285.181032	773.2000122
1285.722547	766.5999756
1286.264005	755.7999878
1286.805408	750.2000122
1287.346754	744.2000122
1287.888044	746.0
1288.429278	753.2000122
1288.970457	752.2000122
1289.511579	745.2000122
1290.052645	749.7999878
1290.593655	750.0
1291.134609	744.7999878
1291.675507	747.0
1292.216349	745.5999756
1292.757135	752.0
1293.297865	747.5999756
1293.838539	745.7999878
1294.379156	748.4000244
1294.919718	748.5999756
1295.460224	750.5999756
1296.000674	750.5999756
1296.541068	747.4000244
1297.081406	751.7999878
1297.621688	747.4000244
1298.161913	750.7999878
1298.702083	746.4000244
1299.242197	747.2000122
1299.782255	750.5999756
1300.322257	749.2000122
1300.862203	748.5999756
1301.402093	748.7999878
1301.941927	743.2000122
1302.481705	746.7999878
1303.021427	748.2000122
1303.561094	750.7999878
1304.100704	746.7999878
1304.640258	744.7999878
1305.179756	745.5999756
1305.719199	744.4000244
1306.258585	744.0
1306.797916	747.7999878
1307.33719	744.2000122
1307.876409	744.2000122
1308.415572	746.5999756
1308.954679	744.2000122
1309.49373	749.7999878
1310.032725	746.0
1310.571664	743.7999878
1311.110547	739.7999878
1311.649374	749.2000122
1312.188146	750.4000244
1312.726861	748.4000244
1313.265521	744.7999878
1313.804125	747.4000244
1314.342672	744.2000122
1314.881164	746.2000122
1315.419601	746.4000244
1315.957981	740.5999756
1316.496305	743.4000244
1317.034574	744.5999756
1317.572786	744.4000244
1318.110943	741.2000122
1318.649044	749.4000244
1319.187089	742.0
1319.725078	748.7999878
1320.263012	743.7999878
1320.800889	753.4000244
1321.338711	746.4000244
1321.876477	741.7999878
1322.414187	750.4000244
1322.951841	750.7999878
1323.489439	745.0
1324.026982	745.7999878
1324.564469	745.2000122
1325.101899	746.4000244
1325.639275	744.0
1326.176594	745.7999878
1326.713857	745.4000244
1327.251065	747.5999756
1327.788217	740.2000122
1328.325313	745.7999878
1328.862353	742.4000244
1329.399338	746.2000122
1329.936267	742.0
1330.47314	746.5999756
1331.009957	746.4000244
1331.546718	744.7999878
1332.083424	743.5999756
1332.620074	737.2000122
1333.156668	745.4000244
1333.693207	743.7999878
1334.229689	744.2000122
1334.766116	744.4000244
1335.302487	742.4000244
1335.838803	744.5999756
1336.375062	743.2000122
1336.911266	744.2000122
1337.447414	739.0
1337.983507	743.0
1338.519543	743.0
1339.055524	745.7999878
1339.59145	740.7999878
1340.127319	747.5999756
1340.663133	737.7999878
1341.198891	741.0
1341.734594	743.5999756
1342.27024	737.7999878
1342.805831	748.0
1343.341367	743.4000244
1343.876846	737.5999756
1344.41227	744.2000122
1344.947639	743.2000122
1345.482951	739.2000122
1346.018208	743.7999878
1346.553409	738.5999756
1347.088555	743.2000122
1347.623645	746.0
1348.158679	741.4000244
1348.693658	738.7999878
1349.22858	741.0
1349.763448	743.5999756
1350.298259	744.5999756
1350.833015	744.2000122
1351.367716	737.7999878
1351.90236	741.7999878
1352.436949	736.2000122
1352.971483	743.4000244
1353.50596	745.7999878
1354.040383	743.4000244
1354.574749	748.7999878
1355.10906	745.2000122
1355.643315	749.4000244
1356.177515	740.7999878
1356.711659	742.4000244
1357.245747	744.5999756
1357.77978	737.4000244
1358.313757	743.4000244
1358.847679	741.4000244
1359.381545	745.7999878
1359.915356	743.5999756
1360.44911	743.5999756
1360.98281	740.7999878
1361.516453	743.5999756
1362.050042	743.0
1362.583574	733.4000244
1363.117051	748.7999878
1363.650473	743.2000122
1364.183838	743.7999878
1364.717149	735.2000122
1365.250404	742.5999756
1365.783603	740.7999878
1366.316746	736.7999878
1366.849834	744.4000244
1367.382867	741.4000244
1367.915844	737.7999878
1368.448766	740.2000122
1368.981631	741.5999756
1369.514442	738.4000244
1370.047197	742.4000244
1370.579896	738.7999878
1371.11254	741.5999756
1371.645128	741.7999878
1372.177661	741.0
1372.710139	735.5999756
1373.24256	734.7999878
1373.774927	740.4000244
1374.307238	742.4000244
1374.839493	738.7999878
1375.371693	741.7999878
1375.903837	739.0
1376.435926	743.0
1376.967959	739.2000122
1377.499937	740.0
1378.03186	742.2000122
1378.563727	743.5999756
1379.095538	733.5999756
1379.627294	744.2000122
1380.158995	738.7999878
1380.69064	740.2000122
1381.222229	745.5999756
1381.753764	742.5999756
1382.285242	734.5999756
1382.816666	737.7999878
1383.348033	737.2000122
1383.879346	740.5999756
1384.410603	739.7999878
1384.941804	741.5999756
1385.472951	742.7999878
1386.004041	739.7999878
1386.535077	740.5999756
1387.066056	741.5999756
1387.596981	747.5999756
1388.12785	760.5999756
1388.658664	778.7999878
1389.189422	759.0
1389.720125	737.4000244
1390.250772	743.0
1390.781364	742.4000244
1391.311901	740.2000122
1391.842382	740.5999756
1392.372808	739.2000122
1392.903178	736.2000122
1393.433494	730.7999878
1393.963753	739.4000244
1394.493958	730.4000244
1395.024107	737.2000122
1395.5542	741.0
1396.084239	739.2000122
1396.614222	740.2000122
1397.144149	739.0
1397.674021	739.4000244
1398.203838	737.2000122
1398.7336	736.2000122
1399.263306	733.2000122
1399.792957	733.4000244
1400.322552	737.5999756
1400.852093	738.4000244
1401.381577	736.4000244
1401.911007	733.7999878
1402.440381	739.4000244
1402.9697	734.2000122
1403.498964	740.4000244
1404.028172	740.2000122
1404.557325	739.0
1405.086423	739.4000244
1405.615465	740.0
1406.144452	736.0
1406.673384	743.5999756
1407.20226	738.7999878
1407.731082	743.5999756
1408.259847	740.5999756
1408.788558	738.2000122
1409.317213	739.4000244
1409.845814	740.2000122
1410.374358	744.4000244
1410.902848	737.7999878
1411.431282	737.0
1411.959661	735.2000122
1412.487985	737.0
1413.016253	738.7999878
1413.544467	740.4000244
1414.072625	737.2000122
1414.600727	738.5999756
1415.128775	733.2000122
1415.656767	745.5999756
1416.184704	734.0
1416.712586	738.7999878
1417.240413	737.2000122
1417.768184	736.0
1418.2959	738.7999878
1418.823561	737.7999878
1419.351167	736.4000244
1419.878717	739.2000122
1420.406213	735.0
1420.933653	736.4000244
1421.461038	736.0
1421.988367	735.4000244
1422.515642	739.0
1423.042861	740.2000122
1423.570025	738.0
1424.097134	737.0
1424.624188	738.5999756
1425.151187	735.7999878
1425.67813	738.7999878
1426.205018	742.7999878
1426.731851	743.4000244
1427.258629	740.2000122
1427.785352	738.7999878
1428.31202	736.5999756
1428.838632	734.7999878
1429.365189	739.0
1429.891692	739.7999878
1430.418139	733.0
1430.94453	734.0
1431.470867	735.7999878
1431.997149	739.0
1432.523375	735.7999878
1433.049546	741.0
1433.575663	740.2000122
1434.101724	741.7999878
1434.62773	739.2000122
1435.15368	741.4000244
1435.679576	741.0
1436.205417	735.5999756
1436.731202	734.4000244
1437.256933	738.5999756
1437.782608	739.5999756
1438.308228	734.4000244
1438.833793	733.4000244
1439.359303	735.0
1439.884758	735.7999878
1440.410158	737.4000244
1440.935503	738.4000244
1441.460793	734.5999756
1441.986027	733.7999878
1442.511207	740.2000122
1443.036331	737.7999878
1443.561401	739.7999878
1444.086415	735.0
1444.611374	736.7999878
1445.136279	732.0
1445.661128	738.0
1446.185922	740.0
1446.710661	731.2000122
1447.235345	739.4000244
1447.759974	735.4000244
1448.284548	734.5999756
1448.809067	738.4000244
1449.333531	742.0
1449.85794	737.4000244
1450.382294	736.7999878
1450.906593	737.7999878
1451.430837	737.2000122
1451.955026	736.2000122
1452.47916	734.7999878
1453.003239	737.5999756
1453.527263	741.5999756
1454.051231	739.4000244
1454.575145	729.7999878
1455.099004	736.0
1455.622808	734.2000122
1456.146557	732.5999756
1456.670251	734.2000122
1457.19389	735.4000244
1457.717474	733.2000122
1458.241003	732.2000122
1458.764477	733.0
1459.287896	733.7999878
1459.81126	733.0
1460.334569	732.5999756
1460.857824	738.5999756
1461.381023	736.7999878
1461.904167	741.2000122
1462.427257	735.5999756
1462.950291	731.0
1463.473271	733.7999878
1463.996195	733.0
1464.519065	735.7999878
1465.041879	737.4000244
1465.564639	738.5999756
1466.087344	734.2000122
1466.609994	734.2000122
1467.132589	733.7999878
1467.655129	735.2000122
1468.177614	732.7999878
1468.700045	730.4000244
1469.22242	737.5999756
1469.744741	733.7999878
1470.267006	735.4000244
1470.789217	732.4000244
1471.311373	741.4000244
1471.833474	737.5999756
1472.35552	734.2000122
1472.877511	734.0
1473.399447	735.2000122
1473.921329	733.2000122
1474.443155	733.5999756
1474.964927	734.0
1475.486644	733.0
1476.008306	732.2000122
1476.529913	736.2000122
1477.051465	735.4000244
1477.572962	734.5999756
1478.094405	734.4000244
1478.615793	730.5999756
1479.137126	728.5999756
1479.658404	729.5999756
1480.179627	731.5999756
1480.700795	729.4000244
1481.221909	735.4000244
1481.742967	735.2000122
1482.263971	732.2000122
1482.78492	735.4000244
1483.305815	732.7999878
1483.826654	730.4000244
1484.347439	737.7999878
1484.868169	735.4000244
1485.388844	733.4000244
1485.909464	732.4000244
1486.43003	736.2000122
1486.95054	728.2000122
1487.470996	729.4000244
1487.991397	732.5999756
1488.511744	733.0
1489.032035	727.0
1489.552272	731.7999878
1490.072454	734.2000122
1490.592581	730.4000244
1491.112654	728.4000244
1491.632671	734.0
1492.152634	726.7999878
1492.672542	730.0
1493.192396	733.4000244
1493.712195	734.2000122
1494.231939	731.0
1494.751628	738.0
1495.271262	729.5999756
1495.790842	731.0
1496.310367	724.5999756
1496.829837	731.5999756
1497.349253	731.7999878
1497.868614	732.5999756
1498.38792	732.4000244
1498.907171	738.0
1499.426368	727.2000122
1499.94551	737.0
1500.464597	731.5999756
1500.98363	730.4000244
1501.502607	731.4000244
1502.021531	733.2000122
1502.540399	734.5999756
1503.059213	730.2000122
1503.577972	732.5999756
1504.096676	732.2000122
1504.615326	734.5999756
1505.133921	737.5999756
1505.652462	733.2000122
1506.170947	734.7999878
1506.689378	730.4000244
1507.207755	732.4000244
1507.726077	731.4000244
1508.244344	729.5999756
1508.762556	731.7999878
1509.280714	735.0
1509.798817	721.7999878
1510.316865	730.5999756
1510.834859	741.4000244
1511.352799	727.2000122
1511.870683	732.2000122
1512.388513	736.4000244
1512.906288	733.0
1513.424009	732.4000244
1513.941675	729.2000122
1514.459287	736.2000122
1514.976843	729.5999756
1515.494346	730.0
1516.011793	733.5999756
1516.529186	731.4000244
1517.046525	730.2000122
1517.563809	728.0
1518.081038	731.4000244
1518.598212	727.4000244
1519.115332	727.5999756
1519.632398	728.7999878
1520.149409	734.7999878
1520.666365	731.5999756
1521.183267	728.4000244
1521.700114	731.4000244
1522.216907	726.7999878
1522.733645	726.5999756
1523.250328	728.5999756
1523.766957	728.7999878
1524.283531	728.7999878
1524.800051	728.4000244
1525.316516	727.7999878
1525.832927	731.4000244
1526.349283	733.2000122
1526.865585	734.7999878
1527.381832	729.0
1527.898025	736.2000122
1528.414163	730.7999878
1528.930246	733.5999756
1529.446275	734.5999756
1529.96225	727.5999756
1530.47817	732.2000122
1530.994035	730.0
1531.509846	728.4000244
1532.025602	732.7999878
1532.541304	723.4000244
1533.056952	730.4000244
1533.572545	731.0
1534.088083	726.2000122
1534.603567	728.5999756
1535.118997	729.5999756
1535.634372	727.4000244
1536.149692	729.0
1536.664958	732.0
1537.18017	729.7999878
1537.695327	729.7999878
1538.210429	731.5999756
1538.725477	728.2000122
1539.240471	725.2000122
1539.75541	731.2000122
1540.270295	728.4000244
1540.785126	725.2000122
1541.299901	726.4000244
1541.814623	724.0
1542.32929	727.7999878
1542.843903	732.4000244
1543.358461	727.7999878
1543.872964	730.5999756
1544.387414	728.0
1544.901809	724.7999878
1545.416149	725.4000244
1545.930435	734.4000244
1546.444667	731.4000244
1546.958844	725.5999756
1547.472967	730.2000122
1547.987035	731.5999756
1548.501049	728.2000122
1549.015009	723.7999878
1549.528914	729.0
1550.042765	728.2000122
1550.556561	722.5999756
1551.070303	730.4000244
1551.583991	725.5999756
1552.097624	726.7999878
1552.611203	730.0
1553.124728	732.2000122
1553.638198	726.7999878
1554.151614	726.2000122
1554.664975	727.0
1555.178282	728.0
1555.691535	727.0
1556.204733	733.2000122
1556.717877	730.5999756
1557.230967	728.5999756
1557.744003	727.5999756
1558.256984	726.0
1558.76991	725.0
1559.282783	728.4000244
1559.795601	734.5999756
1560.308364	729.4000244
1560.821074	729.4000244
1561.333729	727.0
1561.84633	727.0
1562.358876	727.5999756
1562.871368	730.2000122
1563.383806	729.0
1563.89619	728.2000122
1564.408519	726.4000244
1564.920794	726.0
1565.433015	726.4000244
1565.945181	733.7999878
1566.457293	731.5999756
1566.969351	727.7999878
1567.481355	724.5999756
1567.993304	726.0
1568.505199	731.2000122
1569.01704	726.2000122
1569.528826	728.7999878
1570.040558	729.7999878
1570.552236	730.5999756
1571.06386	725.0
1571.575429	727.2000122
1572.086945	724.4000244
1572.598406	725.5999756
1573.109812	727.7999878
1573.621165	726.2000122
1574.132463	729.4000244
1574.643707	730.0
1575.154897	731.0
1575.666033	729.2000122
1576.177114	731.5999756
1576.688141	727.7999878
1577.199114	729.7999878
1577.710033	723.4000244
1578.220897	728.7999878
1578.731708	730.5999756
1579.242464	727.4000244
1579.753166	729.5999756
1580.263813	728.7999878
1580.774407	731.5999756
1581.284946	725.2000122
1581.795432	731.5999756
1582.305863	727.5999756
1582.816239	731.0
1583.326562	719.5999756
1583.836831	729.2000122
1584.347045	726.4000244
1584.857205	726.0
1585.367311	728.4000244
1585.877363	727.5999756
1586.387361	728.0
1586.897304	728.2000122
1587.407194	729.4000244
1587.917029	726.2000122
1588.42681	727.4000244
1588.936537	720.0
1589.44621	720.7999878
1589.955829	731.2000122
1590.465393	725.7999878
1590.974904	721.7999878
1591.48436	724.0
1591.993762	731.2000122
