1043.121438	761.2000122
1043.687813	765.2000122
1044.254131	768.2000122
1044.820391	758.7999878
1045.386593	767.0
1045.952737	757.5999756
1046.518824	751.0
1047.084853	759.0
1047.650824	751.7999878
1048.216738	748.7999878
1048.782593	747.7999878
1049.348392	754.0
1049.914132	759.5999756
1050.479815	752.7999878
1051.04544	750.5999756
1051.611007	752.7999878
1052.176517	751.5999756
1052.741968	750.5999756
1053.307363	748.2000122
1053.872699	750.4000244
1054.437978	756.5999756
1055.003199	747.0
1055.568363	750.2000122
1056.133469	753.2000122
1056.698517	752.0
1057.263508	747.0
1057.82844	745.5999756
1058.393316	744.7999878
1058.958133	749.7999878
1059.522893	746.0
1060.087596	746.0
1060.652241	745.4000244
1061.216828	740.5999756
1061.781357	743.7999878
1062.345829	742.2000122
1062.910243	741.7999878
1063.4746	737.4000244
1064.038899	746.7999878
1064.60314	740.2000122
1065.167324	750.5999756
1065.731451	741.2000122
1066.295519	751.7999878
1066.85953	744.4000244
1067.423484	744.0
1067.98738	743.2000122
1068.551218	741.5999756
1069.114999	739.0
1069.678722	744.2000122
1070.242388	753.5999756
1070.805996	739.2000122
1071.369546	740.2000122
1071.933039	746.7999878
1072.496475	744.7999878
1073.059853	742.7999878
1073.623173	741.4000244
1074.186436	744.2000122
1074.749641	745.2000122
1075.312789	741.5999756
1075.875879	739.2000122
1076.438912	740.4000244
1077.001887	743.7999878
1077.564805	739.2000122
1078.127665	743.0
1078.690468	739.4000244
1079.253213	740.7999878
1079.815901	740.0
1080.378531	740.2000122
1080.941104	735.7999878
1081.50362	736.4000244
1082.066077	745.7999878
1082.628478	735.4000244
1083.190821	738.5999756
1083.753106	743.2000122
1084.315334	737.7999878
1084.877505	736.0
1085.439618	740.5999756
1086.001673	737.5999756
1086.563671	738.2000122
1087.125612	741.2000122
1087.687495	739.7999878
1088.249321	736.0
1088.81109	737.0
1089.372801	736.0
1089.934454	734.5999756
1090.49605	742.4000244
1091.057589	737.7999878
1091.619071	734.2000122
1092.180495	741.5999756
1092.741861	734.5999756
1093.30317	736.4000244
1093.864422	738.7999878
1094.425616	738.7999878
1094.986753	737.7999878
1095.547833	742.4000244
1096.108855	735.2000122
1096.66982	734.7999878
1097.230728	739.0
1097.791578	740.4000244
1098.35237	740.0
1098.913106	739.0
1099.473784	735.4000244
1100.034405	742.0
1100.594968	737.0
1101.155474	737.5999756
1101.715923	735.2000122
1102.276314	736.4000244
1102.836648	733.0
1103.396925	744.5999756
1103.957144	740.5999756
1104.517306	734.7999878
1105.077411	736.0
1105.637459	739.4000244
1106.197449	741.0
1106.757382	737.2000122
1107.317257	731.4000244
1107.877075	741.2000122
1108.436836	732.2000122
1108.99654	735.0
1109.556187	735.5999756
1110.115776	736.5999756
1110.675308	733.0
1111.234782	741.0
1111.7942	728.7999878
1112.35356	732.5999756
1112.912862	732.5999756
1113.472108	736.2000122
1114.031296	735.4000244
1114.590427	732.5999756
1115.149501	734.2000122
1115.708518	739.0
1116.267477	737.4000244
1116.826379	738.7999878
1117.385224	732.5999756
1117.944012	738.2000122
1118.502743	734.2000122
1119.061416	734.0
1119.620032	734.0
1120.178591	734.5999756
1120.737092	736.2000122
1121.295537	735.7999878
1121.853924	727.5999756
1122.412254	732.7999878
1122.970527	734.2000122
1123.528743	732.2000122
1124.086901	732.0
1124.645003	733.4000244
1125.203047	727.4000244
1125.761034	733.5999756
1126.318964	733.4000244
1126.876836	732.7999878
1127.434652	732.2000122
1127.99241	737.2000122
1128.550112	733.4000244
1129.107756	734.7999878
1129.665343	731.0
1130.222873	732.7999878
1130.780345	733.7999878
1131.337761	728.4000244
1131.895119	736.7999878
1132.452421	737.4000244
1133.009665	733.2000122
1133.566852	734.5999756
1134.123982	733.7999878
1134.681055	727.7999878
1135.238071	734.5999756
1135.79503	731.0
1136.351931	731.0
1136.908776	735.4000244
1137.465563	731.4000244
1138.022294	731.5999756
1138.578967	736.0
1139.135583	731.0
1139.692142	732.0
1140.248645	732.7999878
1140.80509	732.2000122
1141.361478	735.4000244
1141.917809	730.2000122
1142.474083	730.0
1143.030299	737.2000122
1143.586459	736.4000244
1144.142562	729.4000244
1144.698608	731.5999756
1145.254596	734.0
1145.810528	730.5999756
1146.366403	734.7999878
1146.922221	728.5999756
1147.477981	735.0
1148.033685	733.2000122
1148.589332	733.0
1149.144921	735.0
1149.700454	729.0
1150.255929	733.4000244
1150.811348	733.0
1151.36671	735.4000244
1151.922014	732.0
1152.477262	735.0
1153.032453	735.7999878
1153.587587	735.5999756
1154.142664	733.7999878
1154.697683	733.2000122
1155.252646	729.7999878
1155.807552	733.0
1156.362401	733.5999756
1156.917193	733.7999878
1157.471928	732.2000122
1158.026607	732.2000122
1158.581228	736.0
1159.135792	730.5999756
1159.690299	730.4000244
1160.24475	729.5999756
1160.799143	732.4000244
1161.35348	729.2000122
1161.90776	735.4000244
1162.461983	737.4000244
1163.016149	731.2000122
1163.570258	731.0
1164.12431	732.5999756
1164.678305	730.7999878
1165.232243	733.5999756
1165.786125	729.7999878
1166.339949	730.4000244
1166.893717	732.2000122
1167.447428	730.0
1168.001082	730.0
1168.554679	732.5999756
1169.108219	727.7999878
1169.661702	733.0
1170.215129	732.2000122
1170.768498	728.7999878
1171.321811	735.0
1171.875067	737.2000122
1172.428266	725.5999756
1172.981409	732.2000122
1173.534494	732.2000122
1174.087523	731.7999878
1174.640495	732.4000244
1175.19341	733.5999756
1175.746268	728.2000122
1176.299069	731.2000122
1176.851814	732.5999756
1177.404501	736.5999756
1177.957132	736.4000244
1178.509707	732.2000122
1179.062224	729.0
1179.614685	730.4000244
1180.167088	730.7999878
1180.719435	732.2000122
1181.271726	731.7999878
1181.823959	725.4000244
1182.376136	729.2000122
1182.928256	730.0
1183.480319	730.2000122
1184.032325	728.4000244
1184.584275	727.4000244
1185.136168	733.4000244
1185.688004	731.0
1186.239784	729.2000122
1186.791506	731.5999756
1187.343172	732.0
1187.894781	727.0
1188.446334	729.2000122
1188.99783	732.2000122
1189.549269	726.4000244
1190.100651	725.7999878
1190.651977	724.7999878
1191.203246	726.5999756
1191.754458	727.5999756
1192.305613	730.7999878
1192.856712	725.7999878
1193.407754	744.7999878
1193.95874	731.4000244
1194.509669	730.7999878
1195.060541	727.0
1195.611356	730.2000122
1196.162115	727.2000122
1196.712817	729.7999878
1197.263462	726.5999756
1197.814051	726.0
1198.364583	728.2000122
1198.915058	727.0
1199.465477	730.5999756
1200.015839	726.0
1200.566145	726.5999756
1201.116394	727.7999878
1201.666586	727.7999878
1202.216721	728.0
1202.7668	729.4000244
1203.316823	725.4000244
1203.866788	726.2000122
1204.416697	728.0
1204.96655	727.2000122
1205.516346	728.4000244
1206.066085	730.7999878
1206.615768	732.0
1207.165394	729.2000122
1207.714963	721.5999756
1208.264476	730.0
1208.813932	729.7999878
1209.363332	724.2000122
1209.912675	726.2000122
1210.461962	728.2000122
1211.011192	724.7999878
1211.560365	726.4000244
1212.109482	731.4000244
1212.658542	727.0
1213.207546	727.0
1213.756493	730.0
1214.305384	727.4000244
1214.854218	722.7999878
1215.402995	731.7999878
1215.951716	725.5999756
1216.500381	725.7999878
1217.048989	732.0
1217.59754	728.0
1218.146035	724.2000122
1218.694473	725.4000244
1219.242855	731.2000122
1219.79118	724.0
1220.339449	721.5999756
1220.887662	725.2000122
1221.435817	724.4000244
1221.983917	726.5999756
1222.531959	726.4000244
1223.079946	725.5999756
1223.627876	729.7999878
1224.175749	727.7999878
1224.723566	728.5999756
1225.271326	725.2000122
1225.81903	722.2000122
1226.366678	727.0
1226.914269	730.7999878
1227.461803	728.7999878
1228.009281	728.5999756
1228.556703	727.0
1229.104068	725.7999878
1229.651377	723.4000244
1230.198629	725.7999878
1230.745825	730.7999878
1231.292965	723.2000122
1231.840048	724.7999878
1232.387074	722.4000244
1232.934044	724.2000122
1233.480958	726.7999878
1234.027815	727.5999756
1234.574616	727.5999756
1235.121361	724.4000244
1235.668049	731.5999756
1236.214681	727.5999756
1236.761256	730.2000122
1237.307775	728.4000244
1237.854237	726.0
1238.400643	729.5999756
1238.946993	728.5999756
1239.493287	727.5999756
1240.039524	725.2000122
1240.585704	727.4000244
1241.131828	725.2000122
1241.677896	723.0
1242.223908	722.4000244
1242.769863	724.4000244
1243.315762	723.5999756
1243.861604	724.4000244
1244.40739	725.4000244
1244.95312	728.2000122
1245.498794	723.5999756
1246.044411	727.4000244
1246.589972	726.2000122
1247.135476	720.7999878
1247.680924	723.7999878
1248.226316	724.4000244
1248.771652	721.0
1249.316931	725.5999756
1249.862154	722.7999878
1250.40732	730.0
1250.95243	725.7999878
1251.497484	723.5999756
1252.042482	727.0
1252.587423	725.2000122
1253.132309	726.4000244
1253.677137	722.0
1254.22191	725.7999878
1254.766626	729.7999878
1255.311286	719.4000244
1255.85589	725.0
1256.400437	720.7999878
1256.944929	721.2000122
1257.489363	724.7999878
1258.033742	724.0
1258.578065	724.4000244
1259.122331	731.7999878
1259.666541	729.0
1260.210694	736.0
1260.754792	722.0
1261.298833	723.7999878
1261.842818	723.2000122
1262.386747	723.4000244
1262.930619	727.7999878
1263.474436	724.0
1264.018196	725.0
1264.5619	727.2000122
1265.105548	729.7999878
1265.649139	730.0
1266.192674	727.2000122
1266.736154	725.4000244
1267.279576	721.2000122
1267.822943	722.4000244
1268.366254	724.4000244
1268.909508	724.0
1269.452706	722.4000244
1269.995848	721.7999878
1270.538934	722.2000122
1271.081964	720.7999878
1271.624937	727.0
1272.167855	724.0
1272.710716	723.4000244
1273.253521	722.7999878
1273.79627	719.7999878
1274.338962	724.2000122
1274.881599	720.7999878
1275.42418	723.7999878
1275.966704	721.2000122
1276.509172	720.7999878
1277.051584	723.5999756
1277.59394	726.0
1278.13624	720.0
1278.678484	721.5999756
1279.220671	724.4000244
1279.762803	721.0
1280.304878	719.0
1280.846897	726.5999756
1281.388861	723.2000122
1281.930768	718.0
1282.472619	724.5999756
1283.014414	724.2000122
1283.556152	727.4000244
1284.097835	726.2000122
1284.639462	749.5999756
1285.181032	807.4000244
1285.722547	830.0
1286.264005	762.4000244
1286.805408	731.4000244
1287.346754	728.0
1287.888044	721.5999756
1288.429278	721.4000244
1288.970457	724.4000244
1289.511579	721.4000244
1290.052645	725.7999878
1290.593655	719.7999878
1291.134609	724.4000244
1291.675507	725.7999878
1292.216349	719.4000244
1292.757135	724.7999878
1293.297865	719.2000122
1293.838539	723.2000122
1294.379156	722.0
1294.919718	722.4000244
1295.460224	723.4000244
1296.000674	723.2000122
1296.541068	717.5999756
1297.081406	719.7999878
1297.621688	726.5999756
1298.161913	718.2000122
1298.702083	722.4000244
1299.242197	722.5999756
1299.782255	722.0
1300.322257	724.2000122
1300.862203	723.0
1301.402093	722.4000244
1301.941927	721.2000122
1302.481705	717.7999878
1303.021427	722.4000244
1303.561094	721.4000244
1304.100704	722.2000122
1304.640258	722.2000122
1305.179756	724.0
1305.719199	719.7999878
1306.258585	722.0
1306.797916	718.2000122
1307.33719	723.2000122
1307.876409	724.0
1308.415572	714.7999878
1308.954679	722.7999878
1309.49373	721.4000244
1310.032725	725.5999756
1310.571664	720.2000122
1311.110547	717.5999756
1311.649374	716.5999756
1312.188146	720.4000244
1312.726861	719.0
1313.265521	717.4000244
1313.804125	721.0
1314.342672	720.5999756
1314.881164	720.5999756
1315.419601	717.7999878
1315.957981	718.7999878
1316.496305	718.2000122
1317.034574	717.5999756
1317.572786	717.0
1318.110943	717.7999878
1318.649044	722.4000244
1319.187089	723.5999756
1319.725078	719.2000122
1320.263012	716.5999756
1320.800889	719.7999878
1321.338711	721.7999878
1321.876477	716.5999756
1322.414187	722.4000244
1322.951841	716.7999878
1323.489439	721.5999756
1324.026982	718.7999878
1324.564469	718.5999756
1325.101899	720.5999756
1325.639275	717.0
1326.176594	721.5999756
1326.713857	718.4000244
1327.251065	719.4000244
1327.788217	716.4000244
1328.325313	721.7999878
1328.862353	720.0
1329.399338	721.0
1329.936267	721.7999878
1330.47314	722.4000244
1331.009957	722.5999756
1331.546718	720.4000244
1332.083424	718.0
1332.620074	719.7999878
1333.156668	718.0
1333.693207	718.7999878
1334.229689	719.7999878
1334.766116	718.0
1335.302487	717.7999878
1335.838803	717.0
1336.375062	718.2000122
1336.911266	719.0
1337.447414	716.0
1337.983507	716.5999756
1338.519543	718.0
1339.055524	719.4000244
1339.59145	721.7999878
1340.127319	719.4000244
1340.663133	718.4000244
1341.198891	716.7999878
1341.734594	717.4000244
1342.27024	714.7999878
1342.805831	716.7999878
1343.341367	717.0
1343.876846	718.7999878
1344.41227	717.2000122
1344.947639	717.7999878
1345.482951	718.7999878
1346.018208	716.7999878
1346.553409	716.7999878
1347.088555	713.7999878
1347.623645	718.0
1348.158679	717.0
1348.693658	718.7999878
1349.22858	717.7999878
1349.763448	719.5999756
1350.298259	713.5999756
1350.833015	718.5999756
1351.367716	716.0
1351.90236	718.0
1352.436949	714.4000244
1352.971483	718.0
1353.50596	714.2000122
1354.040383	718.7999878
1354.574749	718.4000244
1355.10906	720.4000244
1355.643315	720.5999756
1356.177515	722.5999756
1356.711659	718.4000244
1357.245747	721.4000244
1357.77978	717.5999756
1358.313757	721.4000244
1358.847679	716.5999756
1359.381545	715.7999878
1359.915356	715.2000122
1360.44911	719.5999756
1360.98281	716.2000122
1361.516453	717.5999756
1362.050042	713.5999756
1362.583574	715.5999756
1363.117051	715.0
1363.650473	718.7999878
1364.183838	716.0
1364.717149	717.4000244
1365.250404	718.0
1365.783603	716.5999756
1366.316746	717.7999878
1366.849834	711.4000244
1367.382867	719.5999756
1367.915844	715.0
1368.448766	720.5999756
1368.981631	717.0
1369.514442	717.7999878
1370.047197	717.5999756
1370.579896	716.0
1371.11254	711.7999878
1371.645128	716.5999756
1372.177661	714.2000122
1372.710139	713.4000244
1373.24256	716.0
1373.774927	717.7999878
1374.307238	716.5999756
1374.839493	709.2000122
1375.371693	712.4000244
1375.903837	716.2000122
1376.435926	719.0
1376.967959	721.4000244
1377.499937	718.0
1378.03186	720.2000122
1378.563727	715.2000122
1379.095538	715.7999878
1379.627294	713.0
1380.158995	714.4000244
1380.69064	715.0
1381.222229	720.2000122
1381.753764	719.2000122
1382.285242	721.2000122
1382.816666	712.7999878
1383.348033	715.4000244
1383.879346	717.5999756
1384.410603	716.7999878
1384.941804	720.2000122
1385.472951	720.4000244
1386.004041	717.4000244
1386.535077	720.7999878
1387.066056	718.2000122
1387.596981	727.5999756
1388.12785	777.2000122
1388.658664	904.4000244
1389.189422	851.4000244
1389.720125	738.0
1390.250772	718.4000244
1390.781364	726.0
1391.311901	718.0
1391.842382	711.2000122
1392.372808	715.4000244
1392.903178	717.4000244
1393.433494	711.5999756
1393.963753	720.7999878
1394.493958	716.7999878
1395.024107	718.2000122
1395.5542	719.5999756
1396.084239	713.5999756
1396.614222	718.0
1397.144149	717.5999756
1397.674021	714.2000122
1398.203838	718.5999756
1398.7336	713.5999756
1399.263306	715.4000244
1399.792957	717.4000244
1400.322552	718.5999756
1400.852093	714.5999756
1401.381577	716.2000122
1401.911007	718.0
1402.440381	718.4000244
1402.9697	713.0
1403.498964	715.4000244
1404.028172	715.0
1404.557325	718.0
1405.086423	715.2000122
1405.615465	718.0
1406.144452	712.2000122
1406.673384	708.2000122
1407.20226	715.5999756
1407.731082	714.4000244
1408.259847	717.2000122
1408.788558	721.7999878
1409.317213	724.7999878
1409.845814	725.7999878
1410.374358	731.7999878
1410.902848	723.4000244
1411.431282	719.5999756
1411.959661	717.0
1412.487985	714.0
1413.016253	716.0
1413.544467	714.7999878
1414.072625	716.2000122
1414.600727	712.5999756
1415.128775	716.2000122
1415.656767	724.4000244
1416.184704	712.7999878
1416.712586	715.5999756
1417.240413	715.2000122
1417.768184	715.7999878
1418.2959	712.4000244
1418.823561	715.2000122
1419.351167	712.0
1419.878717	716.2000122
1420.406213	712.4000244
1420.933653	715.5999756
1421.461038	712.5999756
1421.988367	713.2000122
1422.515642	712.2000122
1423.042861	712.2000122
1423.570025	718.0
1424.097134	710.0
1424.624188	713.0
1425.151187	709.4000244
1425.67813	713.4000244
1426.205018	712.4000244
1426.731851	715.4000244
1427.258629	715.2000122
1427.785352	716.0
1428.31202	711.4000244
1428.838632	713.5999756
1429.365189	714.7999878
1429.891692	708.7999878
1430.418139	716.4000244
1430.94453	712.4000244
1431.470867	717.5999756
1431.997149	715.4000244
1432.523375	717.4000244
1433.049546	710.2000122
1433.575663	711.7999878
1434.101724	715.7999878
1434.62773	715.0
1435.15368	717.5999756
1435.679576	716.5999756
1436.205417	714.0
1436.731202	711.5999756
1437.256933	710.7999878
1437.782608	706.2000122
1438.308228	713.7999878
1438.833793	710.2000122
1439.359303	712.7999878
1439.884758	715.2000122
1440.410158	711.7999878
1440.935503	717.7999878
1441.460793	713.0
1441.986027	711.5999756
1442.511207	713.5999756
1443.036331	716.2000122
1443.561401	713.0
1444.086415	714.0
1444.611374	711.7999878
1445.136279	712.0
1445.661128	715.4000244
1446.185922	715.2000122
1446.710661	711.0
1447.235345	713.0
1447.759974	711.0
1448.284548	716.2000122
1448.809067	715.0
1449.333531	712.5999756
1449.85794	712.5999756
1450.382294	709.2000122
1450.906593	712.2000122
1451.430837	710.2000122
1451.955026	711.7999878
1452.47916	709.7999878
1453.003239	712.7999878
1453.527263	711.5999756
1454.051231	711.4000244
1454.575145	711.5999756
1455.099004	710.0
1455.622808	714.7999878
1456.146557	709.4000244
1456.670251	717.0
1457.19389	711.0
1457.717474	711.2000122
1458.241003	707.4000244
1458.764477	712.4000244
1459.287896	708.7999878
1459.81126	711.7999878
1460.334569	715.2000122
1460.857824	709.7999878
1461.381023	712.7999878
1461.904167	715.0
1462.427257	711.7999878
1462.950291	714.0
1463.473271	717.7999878
1463.996195	710.7999878
1464.519065	710.4000244
1465.041879	714.7999878
1465.564639	712.0
1466.087344	716.2000122
1466.609994	712.2000122
1467.132589	714.0
1467.655129	709.0
1468.177614	715.7999878
1468.700045	708.5999756
1469.22242	711.5999756
1469.744741	717.0
1470.267006	711.7999878
1470.789217	711.4000244
1471.311373	714.5999756
1471.833474	715.2000122
1472.35552	708.0
1472.877511	711.2000122
1473.399447	712.4000244
1473.921329	710.7999878
1474.443155	710.5999756
1474.964927	708.0
1475.486644	707.2000122
1476.008306	712.7999878
1476.529913	710.5999756
1477.051465	711.5999756
1477.572962	714.4000244
1478.094405	709.2000122
1478.615793	706.2000122
1479.137126	713.7999878
1479.658404	711.7999878
1480.179627	708.4000244
1480.700795	708.7999878
1481.221909	711.4000244
1481.742967	710.7999878
1482.263971	708.5999756
1482.78492	707.2000122
1483.305815	711.2000122
1483.826654	708.4000244
1484.347439	713.2000122
1484.868169	707.4000244
1485.388844	710.4000244
1485.909464	711.7999878
1486.43003	708.5999756
1486.95054	713.5999756
1487.470996	711.0
1487.991397	710.0
1488.511744	708.4000244
1489.032035	710.0
1489.552272	711.5999756
1490.072454	709.0
1490.592581	710.4000244
1491.112654	710.7999878
1491.632671	709.7999878
1492.152634	710.0
1492.672542	713.2000122
1493.192396	709.2000122
1493.712195	710.7999878
1494.231939	711.7999878
1494.751628	712.5999756
1495.271262	708.5999756
1495.790842	710.7999878
1496.310367	710.0
1496.829837	710.2000122
1497.349253	707.2000122
1497.868614	712.5999756
1498.38792	709.5999756
1498.907171	709.7999878
1499.426368	709.2000122
1499.94551	716.4000244
1500.464597	708.7999878
1500.98363	710.7999878
1501.502607	709.5999756
1502.021531	707.2000122
1502.540399	710.0
1503.059213	710.0
1503.577972	709.5999756
1504.096676	708.0
1504.615326	714.0
1505.133921	712.7999878
1505.652462	709.4000244
1506.170947	709.7999878
1506.689378	705.7999878
1507.207755	704.5999756
1507.726077	708.7999878
1508.244344	710.0
1508.762556	710.5999756
1509.280714	711.5999756
1509.798817	708.0
1510.316865	708.4000244
1510.834859	715.4000244
1511.352799	707.4000244
1511.870683	706.7999878
1512.388513	705.2000122
1512.906288	705.4000244
1513.424009	708.4000244
1513.941675	708.5999756
1514.459287	712.5999756
1514.976843	707.0
1515.494346	709.2000122
1516.011793	711.7999878
1516.529186	710.2000122
1517.046525	706.5999756
1517.563809	710.4000244
1518.081038	709.0
1518.598212	706.7999878
1519.115332	707.2000122
1519.632398	707.0
1520.149409	707.5999756
1520.666365	709.2000122
1521.183267	709.5999756
1521.700114	709.2000122
1522.216907	711.0
1522.733645	708.2000122
1523.250328	710.4000244
1523.766957	709.0
1524.283531	708.4000244
1524.800051	706.4000244
1525.316516	710.4000244
1525.832927	710.2000122
1526.349283	707.7999878
1526.865585	709.2000122
1527.381832	708.7999878
1527.898025	708.5999756
1528.414163	712.0
1528.930246	708.7999878
1529.446275	712.5999756
1529.96225	711.5999756
1530.47817	708.7999878
1530.994035	709.4000244
1531.509846	707.0
1532.025602	706.2000122
1532.541304	711.0
1533.056952	710.0
1533.572545	709.2000122
1534.088083	713.4000244
1534.603567	705.5999756
1535.118997	707.4000244
1535.634372	710.0
1536.149692	705.2000122
1536.664958	707.4000244
1537.18017	706.5999756
1537.695327	708.2000122
1538.210429	705.2000122
1538.725477	705.2000122
1539.240471	707.4000244
1539.75541	707.5999756
1540.270295	712.5999756
1540.785126	709.0
1541.299901	712.2000122
1541.814623	708.2000122
1542.32929	713.5999756
1542.843903	708.7999878
1543.358461	711.0
1543.872964	710.0
1544.387414	705.7999878
1544.901809	708.2000122
1545.416149	708.2000122
1545.930435	711.5999756
1546.444667	709.5999756
1546.958844	707.5999756
1547.472967	709.0
1547.987035	706.7999878
1548.501049	707.4000244
1549.015009	707.0
1549.528914	709.5999756
1550.042765	702.5999756
1550.556561	706.7999878
1551.070303	705.7999878
1551.583991	712.0
1552.097624	704.2000122
1552.611203	710.0
1553.124728	712.0
1553.638198	707.2000122
1554.151614	708.7999878
1554.664975	708.7999878
1555.178282	710.7999878
1555.691535	708.0
1556.204733	712.0
1556.717877	704.2000122
1557.230967	712.2000122
1557.744003	707.5999756
1558.256984	707.0
1558.76991	709.0
1559.282783	712.4000244
1559.795601	711.5999756
1560.308364	704.7999878
1560.821074	707.0
1561.333729	703.7999878
1561.84633	708.0
1562.358876	707.4000244
1562.871368	712.5999756
1563.383806	710.7999878
1563.89619	706.4000244
1564.408519	706.4000244
1564.920794	705.2000122
1565.433015	704.0
1565.945181	705.2000122
1566.457293	706.4000244
1566.969351	704.2000122
1567.481355	704.5999756
1567.993304	707.5999756
1568.505199	710.7999878
1569.01704	707.2000122
1569.528826	709.2000122
1570.040558	705.5999756
1570.552236	710.7999878
1571.06386	706.5999756
1571.575429	705.7999878
1572.086945	709.0
1572.598406	711.0
1573.109812	704.7999878
1573.621165	708.2000122
1574.132463	705.7999878
1574.643707	703.5999756
1575.154897	704.5999756
1575.666033	711.4000244
1576.177114	709.7999878
1576.688141	705.2000122
1577.199114	704.7999878
1577.710033	709.0
1578.220897	709.2000122
1578.731708	704.7999878
1579.242464	709.0
1579.753166	709.7999878
1580.263813	708.7999878
1580.774407	707.4000244
1581.284946	706.0
1581.795432	705.0
1582.305863	706.2000122
1582.816239	710.7999878
1583.326562	711.0
1583.836831	705.0
1584.347045	708.0
1584.857205	708.4000244
1585.367311	708.4000244
1585.877363	706.7999878
1586.387361	706.2000122
1586.897304	707.4000244
1587.407194	707.7999878
1587.917029	708.7999878
1588.42681	703.5999756
1588.936537	707.5999756
1589.44621	704.0
1589.955829	707.2000122
1590.465393	705.0
1590.974904	707.0
1591.48436	706.7999878
1591.993762	704.0
1592.50311	706.0
