1042.555005	845.4000244
1043.121438	842.7999878
1043.687813	849.0
1044.254131	844.0
1044.820391	832.5999756
1045.386593	835.4000244
1045.952737	830.0
1046.518824	826.2000122
1047.084853	832.7999878
1047.650824	832.5999756
1048.216738	836.0
1048.782593	827.5999756
1049.348392	829.4000244
1049.914132	835.0
1050.479815	827.2000122
1051.04544	826.4000244
1051.611007	830.0
1052.176517	833.4000244
1052.741968	823.4000244
1053.307363	826.5999756
1053.872699	828.7999878
1054.437978	825.5999756
1055.003199	822.4000244
1055.568363	827.0
1056.133469	832.5999756
1056.698517	826.5999756
1057.263508	834.5999756
1057.82844	823.5999756
1058.393316	827.7999878
1058.958133	830.0
1059.522893	824.2000122
1060.087596	825.2000122
1060.652241	823.4000244
1061.216828	819.5999756
1061.781357	829.7999878
1062.345829	828.2000122
1062.910243	824.5999756
1063.4746	827.2000122
1064.038899	826.2000122
1064.60314	822.4000244
1065.167324	820.7999878
1065.731451	823.7999878
1066.295519	819.2000122
1066.85953	823.5999756
1067.423484	831.2000122
1067.98738	826.5999756
1068.551218	821.0
1069.114999	818.4000244
1069.678722	827.5999756
1070.242388	833.2000122
1070.805996	819.4000244
1071.369546	823.5999756
1071.933039	819.0
1072.496475	816.0
1073.059853	814.2000122
1073.623173	818.2000122
1074.186436	819.2000122
1074.749641	814.0
1075.312789	821.0
1075.875879	814.5999756
1076.438912	821.5999756
1077.001887	819.2000122
1077.564805	821.5999756
1078.127665	809.4000244
1078.690468	825.4000244
1079.253213	817.2000122
1079.815901	821.2000122
1080.378531	822.0
1080.941104	815.7999878
1081.50362	818.4000244
1082.066077	823.7999878
1082.628478	826.0
1083.190821	820.2000122
1083.753106	814.7999878
1084.315334	826.5999756
1084.877505	818.2000122
1085.439618	814.2000122
1086.001673	817.7999878
1086.563671	819.0
1087.125612	817.2000122
1087.687495	818.4000244
1088.249321	819.4000244
1088.81109	817.4000244
1089.372801	814.4000244
1089.934454	821.2000122
1090.49605	817.2000122
1091.057589	824.5999756
1091.619071	815.5999756
1092.180495	813.7999878
1092.741861	812.5999756
1093.30317	819.0
1093.864422	818.0
1094.425616	812.5999756
1094.986753	809.0
1095.547833	809.7999878
1096.108855	813.4000244
1096.66982	814.4000244
1097.230728	821.0
1097.791578	823.5999756
1098.35237	808.7999878
1098.913106	807.7999878
1099.473784	809.4000244
1100.034405	817.0
1100.594968	815.2000122
1101.155474	817.5999756
1101.715923	815.5999756
1102.276314	809.7999878
1102.836648	811.5999756
1103.396925	808.7999878
1103.957144	816.7999878
1104.517306	818.7999878
1105.077411	804.7999878
1105.637459	814.2000122
1106.197449	813.4000244
1106.757382	809.0
1107.317257	809.5999756
1107.877075	810.0
1108.436836	802.5999756
1108.99654	805.7999878
1109.556187	812.2000122
1110.115776	812.2000122
1110.675308	809.7999878
1111.234782	809.2000122
1111.7942	811.0
1112.35356	818.4000244
1112.912862	811.5999756
1113.472108	813.5999756
1114.031296	811.5999756
1114.590427	802.2000122
1115.149501	808.0
1115.708518	807.5999756
1116.267477	808.4000244
1116.826379	820.4000244
1117.385224	808.5999756
1117.944012	809.0
1118.502743	806.5999756
1119.061416	807.0
1119.620032	805.5999756
1120.178591	809.5999756
1120.737092	803.4000244
1121.295537	815.2000122
1121.853924	805.2000122
1122.412254	802.7999878
1122.970527	814.7999878
1123.528743	810.0
1124.086901	804.2000122
1124.645003	809.4000244
1125.203047	809.7999878
1125.761034	810.0
1126.318964	799.2000122
1126.876836	802.7999878
1127.434652	801.0
1127.99241	808.4000244
1128.550112	806.5999756
1129.107756	809.4000244
1129.665343	806.7999878
1130.222873	806.0
1130.780345	805.7999878
1131.337761	810.7999878
1131.895119	810.5999756
1132.452421	811.4000244
1133.009665	802.4000244
1133.566852	804.5999756
1134.123982	800.4000244
1134.681055	811.4000244
1135.238071	807.0
1135.79503	807.2000122
1136.351931	800.5999756
1136.908776	810.7999878
1137.465563	803.4000244
1138.022294	812.0
1138.578967	808.7999878
1139.135583	811.0
1139.692142	800.5999756
1140.248645	808.4000244
1140.80509	807.2000122
1141.361478	808.7999878
1141.917809	806.2000122
1142.474083	804.2000122
1143.030299	815.2000122
1143.586459	813.5999756
1144.142562	807.2000122
1144.698608	810.4000244
1145.254596	811.2000122
1145.810528	804.4000244
1146.366403	803.4000244
1146.922221	807.2000122
1147.477981	804.4000244
1148.033685	818.2000122
1148.589332	803.7999878
1149.144921	803.4000244
1149.700454	806.2000122
1150.255929	808.2000122
1150.811348	801.2000122
1151.36671	802.0
1151.922014	807.5999756
1152.477262	809.7999878
1153.032453	807.0
1153.587587	804.2000122
1154.142664	805.2000122
1154.697683	806.4000244
1155.252646	810.5999756
1155.807552	808.0
1156.362401	805.7999878
1156.917193	802.2000122
1157.471928	804.7999878
1158.026607	813.4000244
1158.581228	806.2000122
1159.135792	806.5999756
1159.690299	817.4000244
1160.24475	811.5999756
1160.799143	811.4000244
1161.35348	806.7999878
1161.90776	804.4000244
1162.461983	799.5999756
1163.016149	803.2000122
1163.570258	803.5999756
1164.12431	813.7999878
1164.678305	801.7999878
1165.232243	808.0
1165.786125	805.0
1166.339949	804.5999756
1166.893717	799.5999756
1167.447428	808.0
1168.001082	805.4000244
1168.554679	804.7999878
1169.108219	805.4000244
1169.661702	808.7999878
1170.215129	803.0
1170.768498	808.2000122
1171.321811	797.0
1171.875067	802.4000244
1172.428266	805.7999878
1172.981409	810.0
1173.534494	802.4000244
1174.087523	804.7999878
1174.640495	803.4000244
1175.19341	802.2000122
1175.746268	800.2000122
1176.299069	807.5999756
1176.851814	809.5999756
1177.404501	808.2000122
1177.957132	801.7999878
1178.509707	808.4000244
1179.062224	811.7999878
1179.614685	809.0
1180.167088	805.4000244
1180.719435	800.7999878
1181.271726	805.2000122
1181.823959	807.5999756
1182.376136	798.0
1182.928256	803.2000122
1183.480319	801.5999756
1184.032325	804.0
1184.584275	800.2000122
1185.136168	809.7999878
1185.688004	808.4000244
1186.239784	803.7999878
1186.791506	805.5999756
1187.343172	800.0
1187.894781	802.0
1188.446334	802.2000122
1188.99783	801.5999756
1189.549269	800.0
1190.100651	804.5999756
1190.651977	803.4000244
1191.203246	800.2000122
1191.754458	806.5999756
1192.305613	806.0
1192.856712	808.7999878
1193.407754	813.2000122
1193.95874	802.0
1194.509669	797.0
1195.060541	803.0
1195.611356	804.4000244
1196.162115	799.4000244
1196.712817	810.4000244
1197.263462	799.7999878
1197.814051	799.4000244
1198.364583	803.7999878
1198.915058	798.2000122
1199.465477	797.4000244
1200.015839	807.0
1200.566145	800.5999756
1201.116394	797.7999878
1201.666586	801.4000244
1202.216721	802.2000122
1202.7668	807.0
1203.316823	802.2000122
1203.866788	807.5999756
1204.416697	804.5999756
1204.96655	799.7999878
1205.516346	793.5999756
1206.066085	800.4000244
1206.615768	803.7999878
1207.165394	806.0
1207.714963	796.2000122
1208.264476	799.7999878
1208.813932	802.5999756
1209.363332	805.4000244
1209.912675	806.7999878
1210.461962	808.0
1211.011192	795.7999878
1211.560365	808.0
1212.109482	796.5999756
1212.658542	801.7999878
1213.207546	801.5999756
1213.756493	800.0
1214.305384	793.2000122
1214.854218	798.7999878
1215.402995	799.7999878
1215.951716	791.4000244
1216.500381	796.2000122
1217.048989	803.7999878
1217.59754	801.7999878
1218.146035	805.2000122
1218.694473	802.2000122
1219.242855	799.7999878
1219.79118	800.7999878
1220.339449	799.0
1220.887662	799.2000122
1221.435817	802.7999878
1221.983917	801.0
1222.531959	799.0
1223.079946	801.2000122
1223.627876	801.5999756
1224.175749	800.4000244
1224.723566	801.2000122
1225.271326	797.5999756
1225.81903	792.7999878
1226.366678	795.2000122
1226.914269	801.5999756
1227.461803	797.7999878
1228.009281	797.0
1228.556703	787.7999878
1229.104068	798.2000122
1229.651377	800.0
1230.198629	799.0
1230.745825	799.0
1231.292965	795.7999878
1231.840048	803.0
1232.387074	798.7999878
1232.934044	790.7999878
1233.480958	796.2000122
1234.027815	796.4000244
1234.574616	795.4000244
1235.121361	792.0
1235.668049	791.5999756
1236.214681	795.4000244
1236.761256	794.5999756
1237.307775	795.5999756
1237.854237	797.0
1238.400643	793.7999878
1238.946993	796.5999756
1239.493287	794.4000244
1240.039524	792.0
1240.585704	793.7999878
1241.131828	799.5999756
1241.677896	802.0
1242.223908	799.5999756
1242.769863	794.7999878
1243.315762	793.2000122
1243.861604	788.5999756
1244.40739	796.7999878
1244.95312	796.4000244
1245.498794	790.2000122
1246.044411	796.5999756
1246.589972	789.2000122
1247.135476	789.5999756
1247.680924	791.0
1248.226316	803.5999756
1248.771652	799.2000122
1249.316931	789.5999756
1249.862154	790.2000122
1250.40732	794.5999756
1250.95243	790.2000122
1251.497484	794.7999878
1252.042482	792.4000244
1252.587423	793.7999878
1253.132309	790.2000122
1253.677137	792.0
1254.22191	793.0
1254.766626	789.4000244
1255.311286	789.2000122
1255.85589	792.2000122
1256.400437	793.0
1256.944929	794.4000244
1257.489363	793.7999878
1258.033742	793.7999878
1258.578065	790.2000122
1259.122331	794.5999756
1259.666541	787.2000122
1260.210694	797.2000122
1260.754792	795.0
1261.298833	795.0
1261.842818	791.7999878
1262.386747	791.0
1262.930619	791.4000244
1263.474436	796.5999756
1264.018196	795.7999878
1264.5619	796.4000244
1265.105548	799.2000122
1265.649139	791.2000122
1266.192674	786.5999756
1266.736154	791.4000244
1267.279576	791.4000244
1267.822943	788.2000122
1268.366254	790.4000244
1268.909508	787.7999878
1269.452706	794.5999756
1269.995848	791.4000244
1270.538934	791.7999878
1271.081964	789.5999756
1271.624937	790.4000244
1272.167855	786.7999878
1272.710716	791.5999756
1273.253521	790.4000244
1273.79627	785.7999878
1274.338962	793.0
1274.881599	793.5999756
1275.42418	794.5999756
1275.966704	787.2000122
1276.509172	792.5999756
1277.051584	789.4000244
1277.59394	788.2000122
1278.13624	782.4000244
1278.678484	790.2000122
1279.220671	788.4000244
1279.762803	789.4000244
1280.304878	788.0
1280.846897	791.4000244
1281.388861	788.5999756
1281.930768	787.5999756
1282.472619	791.4000244
1283.014414	794.0
1283.556152	791.5999756
1284.097835	792.0
1284.639462	789.2000122
1285.181032	808.4000244
1285.722547	815.2000122
1286.264005	791.4000244
1286.805408	788.7999878
1287.346754	794.7999878
1287.888044	783.5999756
1288.429278	788.7999878
1288.970457	788.4000244
1289.511579	785.2000122
1290.052645	786.0
1290.593655	789.0
1291.134609	782.7999878
1291.675507	788.0
1292.216349	787.5999756
1292.757135	789.4000244
1293.297865	786.7999878
1293.838539	790.5999756
1294.379156	788.5999756
1294.919718	788.7999878
1295.460224	787.5999756
1296.000674	784.5999756
1296.541068	789.0
1297.081406	786.2000122
1297.621688	782.7999878
1298.161913	789.7999878
1298.702083	786.2000122
1299.242197	782.5999756
1299.782255	782.2000122
1300.322257	785.0
1300.862203	781.7999878
1301.402093	780.0
1301.941927	787.2000122
1302.481705	787.2000122
1303.021427	785.7999878
1303.561094	788.7999878
1304.100704	784.4000244
1304.640258	792.5999756
1305.179756	789.5999756
1305.719199	779.5999756
1306.258585	784.2000122
1306.797916	789.7999878
1307.33719	779.7999878
1307.876409	782.7999878
1308.415572	780.4000244
1308.954679	785.0
1309.49373	779.4000244
1310.032725	778.7999878
1310.571664	780.7999878
1311.110547	783.7999878
1311.649374	785.4000244
1312.188146	780.0
1312.726861	782.5999756
1313.265521	781.7999878
1313.804125	783.0
1314.342672	783.7999878
1314.881164	776.5999756
1315.419601	784.2000122
1315.957981	785.0
1316.496305	780.7999878
1317.034574	782.4000244
1317.572786	787.4000244
1318.110943	780.5999756
1318.649044	787.4000244
1319.187089	786.4000244
1319.725078	779.7999878
1320.263012	787.4000244
1320.800889	782.5999756
1321.338711	780.7999878
1321.876477	784.5999756
1322.414187	790.7999878
1322.951841	784.7999878
1323.489439	784.2000122
1324.026982	787.2000122
1324.564469	779.7999878
1325.101899	785.2000122
1325.639275	779.2000122
1326.176594	780.7999878
1326.713857	783.7999878
1327.251065	781.0
1327.788217	776.5999756
1328.325313	782.0
1328.862353	783.7999878
1329.399338	781.5999756
1329.936267	778.0
1330.47314	775.7999878
1331.009957	777.7999878
1331.546718	780.5999756
1332.083424	776.7999878
1332.620074	773.0
1333.156668	778.2000122
1333.693207	780.5999756
1334.229689	777.4000244
1334.766116	779.2000122
1335.302487	779.4000244
1335.838803	780.4000244
1336.375062	778.5999756
1336.911266	784.0
1337.447414	781.7999878
1337.983507	782.7999878
1338.519543	781.4000244
1339.055524	778.2000122
1339.59145	781.0
1340.127319	775.7999878
1340.663133	784.0
1341.198891	778.2000122
1341.734594	780.4000244
1342.27024	774.0
1342.805831	782.0
1343.341367	783.7999878
1343.876846	780.7999878
1344.41227	786.2000122
1344.947639	781.2000122
1345.482951	778.0
1346.018208	785.2000122
1346.553409	779.4000244
1347.088555	772.7999878
1347.623645	782.0
1348.158679	777.7999878
1348.693658	777.2000122
1349.22858	776.4000244
1349.763448	776.5999756
1350.298259	770.4000244
1350.833015	781.5999756
1351.367716	779.4000244
1351.90236	774.7999878
1352.436949	778.5999756
1352.971483	781.0
1353.50596	780.2000122
1354.040383	779.7999878
1354.574749	777.0
1355.10906	777.2000122
1355.643315	783.4000244
1356.177515	775.4000244
1356.711659	779.2000122
1357.245747	777.4000244
1357.77978	776.4000244
1358.313757	775.7999878
1358.847679	773.5999756
1359.381545	776.5999756
1359.915356	776.5999756
1360.44911	774.0
1360.98281	778.2000122
1361.516453	780.2000122
1362.050042	780.7999878
1362.583574	781.5999756
1363.117051	772.5999756
1363.650473	775.5999756
1364.183838	780.0
1364.717149	782.5999756
1365.250404	776.5999756
1365.783603	775.0
1366.316746	778.0
1366.849834	773.7999878
1367.382867	779.2000122
1367.915844	778.7999878
1368.448766	774.5999756
1368.981631	775.4000244
1369.514442	778.4000244
1370.047197	777.2000122
1370.579896	781.5999756
1371.11254	773.0
1371.645128	771.4000244
1372.177661	776.5999756
1372.710139	774.0
1373.24256	779.0
1373.774927	778.0
1374.307238	783.7999878
1374.839493	778.4000244
1375.371693	780.0
1375.903837	779.0
1376.435926	777.4000244
1376.967959	777.0
1377.499937	776.0
1378.03186	773.2000122
1378.563727	774.7999878
1379.095538	777.5999756
1379.627294	774.5999756
1380.158995	773.0
1380.69064	773.4000244
1381.222229	773.7999878
1381.753764	779.0
1382.285242	775.2000122
1382.816666	770.4000244
1383.348033	773.4000244
1383.879346	773.2000122
1384.410603	771.4000244
1384.941804	782.5999756
1385.472951	770.4000244
1386.004041	772.2000122
1386.535077	778.7999878
1387.066056	773.0
1387.596981	782.0
1388.12785	784.7999878
1388.658664	804.7999878
1389.189422	799.4000244
1389.720125	781.0
1390.250772	774.0
1390.781364	777.7999878
1391.311901	773.5999756
1391.842382	773.2000122
1392.372808	776.7999878
1392.903178	779.7999878
1393.433494	772.4000244
1393.963753	773.2000122
1394.493958	772.5999756
1395.024107	767.2000122
1395.5542	775.2000122
1396.084239	770.2000122
1396.614222	773.5999756
1397.144149	770.2000122
1397.674021	769.4000244
1398.203838	774.0
1398.7336	773.2000122
1399.263306	772.7999878
1399.792957	775.4000244
1400.322552	772.5999756
1400.852093	772.5999756
1401.381577	770.5999756
1401.911007	781.4000244
1402.440381	774.0
1402.9697	772.4000244
1403.498964	766.0
1404.028172	770.5999756
1404.557325	776.2000122
1405.086423	773.7999878
1405.615465	770.2000122
1406.144452	773.0
1406.673384	771.4000244
1407.20226	766.7999878
1407.731082	774.5999756
1408.259847	773.4000244
1408.788558	775.5999756
1409.317213	778.7999878
1409.845814	781.4000244
1410.374358	766.7999878
1410.902848	777.5999756
1411.431282	775.5999756
1411.959661	771.5999756
1412.487985	771.0
1413.016253	771.2000122
1413.544467	766.2000122
1414.072625	767.2000122
1414.600727	772.0
1415.128775	776.4000244
1415.656767	784.4000244
1416.184704	772.2000122
1416.712586	773.7999878
1417.240413	766.5999756
1417.768184	770.7999878
1418.2959	770.2000122
1418.823561	768.5999756
1419.351167	772.4000244
1419.878717	771.5999756
1420.406213	772.0
1420.933653	774.5999756
1421.461038	770.4000244
1421.988367	773.4000244
1422.515642	770.2000122
1423.042861	775.7999878
1423.570025	770.5999756
1424.097134	769.7999878
1424.624188	777.4000244
1425.151187	771.7999878
1425.67813	768.7999878
1426.205018	773.4000244
1426.731851	770.2000122
1427.258629	769.5999756
1427.785352	777.7999878
1428.31202	766.2000122
1428.838632	771.5999756
1429.365189	772.5999756
1429.891692	777.0
1430.418139	767.4000244
1430.94453	773.4000244
1431.470867	774.2000122
1431.997149	765.7999878
1432.523375	769.2000122
1433.049546	763.2000122
1433.575663	775.5999756
1434.101724	777.5999756
1434.62773	768.7999878
1435.15368	772.0
1435.679576	777.2000122
1436.205417	774.4000244
1436.731202	766.5999756
1437.256933	767.4000244
1437.782608	767.0
1438.308228	772.2000122
1438.833793	766.2000122
1439.359303	770.2000122
1439.884758	775.2000122
1440.410158	770.2000122
1440.935503	766.0
1441.460793	768.5999756
1441.986027	768.0
1442.511207	765.0
1443.036331	766.7999878
1443.561401	765.7999878
1444.086415	772.2000122
1444.611374	766.0
1445.136279	771.0
1445.661128	759.5999756
1446.185922	771.5999756
1446.710661	765.7999878
1447.235345	770.0
1447.759974	771.7999878
1448.284548	757.5999756
1448.809067	771.5999756
1449.333531	768.7999878
1449.85794	766.7999878
1450.382294	768.4000244
1450.906593	765.5999756
1451.430837	766.2000122
1451.955026	770.0
1452.47916	764.5999756
1453.003239	773.4000244
1453.527263	763.5999756
1454.051231	763.4000244
1454.575145	765.7999878
1455.099004	770.5999756
1455.622808	767.7999878
1456.146557	766.5999756
1456.670251	771.5999756
1457.19389	764.2000122
1457.717474	765.7999878
1458.241003	769.4000244
1458.764477	764.0
1459.287896	765.4000244
1459.81126	771.0
1460.334569	770.4000244
1460.857824	763.7999878
1461.381023	767.7999878
1461.904167	766.4000244
1462.427257	768.0
1462.950291	766.5999756
1463.473271	769.2000122
1463.996195	761.2000122
1464.519065	768.2000122
1465.041879	762.5999756
1465.564639	772.4000244
1466.087344	765.2000122
1466.609994	762.4000244
1467.132589	763.2000122
1467.655129	759.2000122
1468.177614	766.4000244
1468.700045	765.4000244
1469.22242	763.2000122
1469.744741	770.0
1470.267006	763.0
1470.789217	764.5999756
1471.311373	765.7999878
1471.833474	762.4000244
1472.35552	764.2000122
1472.877511	767.7999878
1473.399447	765.0
1473.921329	766.0
1474.443155	770.4000244
1474.964927	764.2000122
1475.486644	763.0
1476.008306	764.5999756
1476.529913	769.2000122
1477.051465	761.5999756
1477.572962	766.0
1478.094405	767.0
1478.615793	765.4000244
1479.137126	769.5999756
1479.658404	763.7999878
1480.179627	762.7999878
1480.700795	762.7999878
1481.221909	763.7999878
1481.742967	761.5999756
1482.263971	769.0
1482.78492	763.0
1483.305815	764.0
1483.826654	764.2000122
1484.347439	761.2000122
1484.868169	763.4000244
1485.388844	760.2000122
1485.909464	765.4000244
1486.43003	767.4000244
1486.95054	760.4000244
1487.470996	763.7999878
1487.991397	766.4000244
1488.511744	758.2000122
1489.032035	768.5999756
1489.552272	765.2000122
1490.072454	771.4000244
1490.592581	760.0
1491.112654	758.0
1491.632671	762.2000122
1492.152634	767.2000122
1492.672542	759.2000122
1493.192396	764.2000122
1493.712195	760.7999878
1494.231939	760.0
1494.751628	762.4000244
1495.271262	765.2000122
1495.790842	765.4000244
1496.310367	759.2000122
1496.829837	760.5999756
1497.349253	765.7999878
1497.868614	760.2000122
1498.38792	760.2000122
1498.907171	758.2000122
1499.426368	762.4000244
1499.94551	769.7999878
1500.464597	762.5999756
1500.98363	758.5999756
1501.502607	758.2000122
1502.021531	764.2000122
1502.540399	758.5999756
1503.059213	762.2000122
1503.577972	758.0
1504.096676	755.7999878
1504.615326	757.7999878
1505.133921	759.7999878
1505.652462	761.4000244
1506.170947	762.4000244
1506.689378	760.7999878
1507.207755	764.7999878
1507.726077	764.7999878
1508.244344	767.0
1508.762556	761.0
1509.280714	752.2000122
1509.798817	759.4000244
1510.316865	755.5999756
1510.834859	769.7999878
1511.352799	755.4000244
1511.870683	752.4000244
1512.388513	763.0
1512.906288	758.5999756
1513.424009	751.0
1513.941675	762.2000122
1514.459287	758.0
1514.976843	763.4000244
1515.494346	767.0
1516.011793	759.4000244
1516.529186	756.5999756
1517.046525	755.4000244
1517.563809	760.2000122
1518.081038	753.5999756
1518.598212	761.7999878
1519.115332	755.7999878
1519.632398	763.2000122
1520.149409	758.5999756
1520.666365	758.4000244
1521.183267	760.2000122
1521.700114	759.7999878
1522.216907	758.2000122
1522.733645	757.2000122
1523.250328	754.5999756
1523.766957	756.2000122
1524.283531	759.2000122
1524.800051	758.4000244
1525.316516	753.7999878
1525.832927	760.7999878
1526.349283	755.5999756
1526.865585	755.5999756
1527.381832	757.4000244
1527.898025	753.7999878
1528.414163	762.5999756
1528.930246	759.2000122
1529.446275	753.0
1529.96225	755.2000122
1530.47817	756.7999878
1530.994035	756.7999878
1531.509846	759.2000122
1532.025602	755.7999878
1532.541304	760.4000244
1533.056952	756.0
1533.572545	757.0
1534.088083	754.5999756
1534.603567	755.2000122
1535.118997	756.5999756
1535.634372	758.2000122
1536.149692	758.4000244
1536.664958	757.0
1537.18017	763.7999878
1537.695327	758.0
1538.210429	757.0
1538.725477	763.4000244
1539.240471	758.0
1539.75541	759.5999756
1540.270295	752.4000244
1540.785126	763.5999756
1541.299901	759.4000244
1541.814623	759.0
1542.32929	760.5999756
1542.843903	753.4000244
1543.358461	757.0
1543.872964	756.7999878
1544.387414	756.7999878
1544.901809	759.7999878
1545.416149	758.0
1545.930435	762.4000244
1546.444667	762.7999878
1546.958844	753.7999878
1547.472967	753.4000244
1547.987035	754.5999756
1548.501049	758.5999756
1549.015009	751.0
1549.528914	761.5999756
1550.042765	758.4000244
1550.556561	760.4000244
1551.070303	756.0
1551.583991	758.0
1552.097624	752.5999756
1552.611203	750.7999878
1553.124728	761.7999878
1553.638198	757.4000244
1554.151614	758.4000244
1554.664975	751.4000244
1555.178282	757.2000122
1555.691535	757.0
1556.204733	756.0
1556.717877	751.4000244
1557.230967	757.5999756
1557.744003	762.0
1558.256984	755.4000244
1558.76991	757.2000122
1559.282783	755.5999756
1559.795601	751.5999756
1560.308364	758.7999878
1560.821074	754.5999756
1561.333729	748.5999756
1561.84633	752.7999878
1562.358876	756.2000122
1562.871368	755.2000122
1563.383806	751.7999878
1563.89619	751.5999756
1564.408519	751.4000244
1564.920794	753.2000122
1565.433015	753.4000244
1565.945181	752.7999878
1566.457293	758.0
1566.969351	755.2000122
1567.481355	758.0
1567.993304	753.7999878
1568.505199	755.5999756
1569.01704	751.0
1569.528826	755.2000122
1570.040558	758.2000122
1570.552236	754.2000122
1571.06386	754.7999878
1571.575429	747.4000244
1572.086945	754.2000122
1572.598406	756.5999756
1573.109812	756.5999756
1573.621165	751.2000122
1574.132463	754.7999878
1574.643707	757.5999756
1575.154897	755.7999878
1575.666033	752.2000122
1576.177114	755.0
1576.688141	756.4000244
1577.199114	753.2000122
1577.710033	758.5999756
1578.220897	753.7999878
1578.731708	756.4000244
1579.242464	756.5999756
1579.753166	758.2000122
1580.263813	758.7999878
1580.774407	756.4000244
1581.284946	751.5999756
1581.795432	755.4000244
1582.305863	755.2000122
1582.816239	748.2000122
1583.326562	752.4000244
1583.836831	758.4000244
1584.347045	752.5999756
1584.857205	754.4000244
1585.367311	747.0
1585.877363	754.0
1586.387361	755.5999756
1586.897304	754.4000244
1587.407194	748.2000122
1587.917029	752.0
1588.42681	756.7999878
1588.936537	752.2000122
1589.44621	756.0
1589.955829	748.5999756
1590.465393	745.4000244
1590.974904	750.4000244
1591.48436	752.4000244
1591.993762	754.0
